Wavelength (nm),Absorbance (AU)
190,0.793393135
191,0.782814026
192,0.281414032
193,-0.377407551
194,0.378264427
195,-0.317082882
196,-0.263231277
197,0.222223759
198,-0.457198143
199,-0.382191658
200,-0.218492031
201,0.159319401
202,-0.037003517
203,0.839341164
204,0.872427464
205,-0.006450176
206,-0.030552864
207,0.381977558
208,0.405249596
209,0.299363613
210,0.602059841
211,0.695437431
212,0.285245895
213,0.179150581
214,0.115429401
215,-0.331111431
216,-0.272289753
217,0.279999733
218,0.708844185
219,0.03467083
220,0.301990986
221,0.264993668
222,0.333457947
223,-0.404883385
224,-0.201245785
225,0.070480347
226,0.2267313
227,0.321122646
228,0.251048088
229,0.144944191
230,-0.266376972
231,-0.327398777
232,0.17672348
233,-0.066272259
234,0.196671009
235,0.472626686
236,0.453468323
237,0.145037174
238,0.092760563
239,0.337712288
240,0.061086178
241,0.141792774
242,0.496284008
243,0.944092751
244,0.501589775
245,-0.152422905
246,-0.295798302
247,0.33919239
248,0.338142872
249,0.039716244
250,0.429636478
251,-0.12245369
252,0.122063637
253,-0.486526012
254,0.062601566
255,0.457273483
256,0.089287281
257,0.442002773
258,0.230887413
259,0.373754501
260,0.41412878
261,0.678019524
262,0.151334286
263,0.247805595
264,-0.054656029
265,0.077917576
266,0.190526962
267,0.412581921
268,0.404299736
269,-0.102249146
270,-0.077535629
271,0.352477551
272,0.318785667
273,0.124961376
274,0.163824081
275,0.114431381
276,0.325565815
277,0.097059727
278,0.159368038
279,0.302781105
280,0.103292465
281,0.358053684
282,0.214932442
283,0.25918293
284,0.2247715
285,0.255272388
286,0.23900938
287,0.23450613
288,0.224298
289,0.225152493
290,0.223140717
291,0.235002041
292,0.243579865
293,0.246903419
294,0.229706287
295,0.218194485
296,0.208381176
297,0.204348087
298,0.202856064
299,0.202952385
300,0.203701973
301,0.205989361
302,0.207752228
303,0.209718704
304,0.211037159
305,0.21231842
306,0.212779522
307,0.212816238
308,0.212738514
309,0.212309837
310,0.210264206
311,0.208171368
312,0.20549202
313,0.202192783
314,0.198123932
315,0.19344759
316,0.187828541
317,0.182386398
318,0.17585516
319,0.168892384
320,0.161419392
321,0.153543472
322,0.144863605
323,0.136886597
324,0.128469467
325,0.120411873
326,0.113048077
327,0.106133938
328,0.099647999
329,0.094105721
330,0.089074612
331,0.084456921
332,0.080357552
333,0.076786995
334,0.073400974
335,0.070696831
336,0.068232536
337,0.065973282
338,0.064139843
339,0.062601566
340,0.061101437
341,0.059746265
342,0.058922291
343,0.058054447
344,0.057162285
345,0.056794167
346,0.056415081
347,0.056093216
348,0.055788994
349,0.055873871
350,0.055664063
351,0.055808067
352,0.056035042
353,0.055826187
354,0.056049347
355,0.056446552
356,0.056221008
357,0.057682037
358,0.060229778
359,0.060927391
360,0.060020924
361,0.05980587
362,0.060526848
363,0.062080383
364,0.06276989
365,0.063597202
366,0.064420223
367,0.065249443
368,0.066531181
369,0.067326546
370,0.068399429
371,0.069453716
372,0.070982933
373,0.072892189
374,0.074715137
375,0.076750755
376,0.078918457
377,0.08131361
378,0.083970547
379,0.086665154
380,0.089296818
381,0.091738701
382,0.094351292
383,0.09633112
384,0.098813057
385,0.100416183
386,0.102378845
387,0.103826046
388,0.105025768
389,0.105891228
390,0.106931686
391,0.107539654
392,0.108710766
393,0.109884739
394,0.111311913
395,0.113152981
396,0.1152668
397,0.117835045
398,0.120628834
399,0.123535156
400,0.127642632
401,0.131426334
402,0.135575294
403,0.139530182
404,0.143249512
405,0.146207809
406,0.148296833
407,0.149929047
408,0.15007925
409,0.149542809
410,0.147840023
411,0.145211697
412,0.1414814
413,0.136750221
414,0.131794453
415,0.125487328
416,0.118638992
417,0.111756325
418,0.105040073
419,0.09765625
420,0.090298176
421,0.083301544
422,0.07625246
423,0.070501328
424,0.064322472
425,0.058799267
426,0.05313921
427,0.047753811
428,0.043131351
429,0.039655685
430,0.035168171
431,0.032036781
432,0.029598236
433,0.026503563
434,0.022738934
435,0.021515369
436,0.019373417
437,0.017437458
438,0.016291142
439,0.014563084
440,0.013912201
441,0.0128088
442,0.0113554
443,0.011390209
444,0.010206699
445,0.01005125
446,0.009297371
447,0.008951664
448,0.008730412
449,0.00813818
450,0.007958412
451,0.007772446
452,0.007479668
453,0.007313728
454,0.007189751
455,0.007024288
456,0.006817341
457,0.006530285
458,0.00632
459,0.006278992
460,0.006502628
461,0.006340504
462,0.006363869
463,0.006031513
464,0.005616665
465,0.005756378
466,0.005726814
467,0.005979538
468,0.005544662
469,0.005752087
470,0.005628109
471,0.005350113
472,0.005120277
473,0.004912853
474,0.005120754
475,0.005139828
476,0.004822254
477,0.005490303
478,0.005277157
479,0.005262375
480,0.005300999
481,0.005579948
482,0.005699635
483,0.006230354
484,0.005792618
485,0.006613255
486,0.002670288
487,0.01093483
488,0.008040905
489,0.007249355
490,0.007385254
491,0.00792551
492,0.0080266
493,0.008051395
494,0.008748055
495,0.009659767
496,0.009539127
497,0.010049343
498,0.01068306
499,0.010457993
500,0.011362076
501,0.011993408
502,0.012140274
503,0.013005733
504,0.013611317
505,0.014407635
506,0.014601707
507,0.015863419
508,0.016237259
509,0.016886234
510,0.017874718
511,0.018789291
512,0.019650459
513,0.020456791
514,0.021545887
515,0.022514343
516,0.023685932
517,0.024599075
518,0.025855541
519,0.026968479
520,0.028423786
521,0.029600143
522,0.031202793
523,0.032485008
524,0.033888817
525,0.035446644
526,0.037097931
527,0.038865566
528,0.040688038
529,0.042382717
530,0.044371128
531,0.046257496
532,0.048540592
533,0.050436974
534,0.052659988
535,0.055330753
536,0.057556629
537,0.060476303
538,0.062579632
539,0.065217495
540,0.068350315
541,0.07127285
542,0.0741992
543,0.077163219
544,0.08074379
545,0.083876133
546,0.087878704
547,0.091645241
548,0.095309258
549,0.099666119
550,0.104000568
551,0.108668804
552,0.113677502
553,0.118637085
554,0.124005318
555,0.129488468
556,0.135359287
557,0.141773701
558,0.14789772
559,0.155187607
560,0.161972523
561,0.169316769
562,0.177142143
563,0.185224533
564,0.193297863
565,0.201672077
566,0.210706234
567,0.219233036
568,0.228379726
569,0.238143444
570,0.246270657
571,0.25640583
572,0.264396667
573,0.275938034
574,0.283340931
575,0.292829514
576,0.302128315
577,0.311413288
578,0.318964958
579,0.328547955
580,0.336157322
581,0.347072601
582,0.350486755
583,0.360311508
584,0.370105743
585,0.375917435
586,0.383272171
587,0.392602921
588,0.398618221
589,0.407258511
590,0.41547966
591,0.423865795
592,0.43453598
593,0.441930771
594,0.452221394
595,0.463873386
596,0.474232674
597,0.487763882
598,0.501333714
599,0.51582098
600,0.530412674
601,0.546910286
602,0.563638687
603,0.582434177
604,0.599626064
605,0.623164654
606,0.647247791
607,0.673091412
608,0.69916153
609,0.72728157
610,0.757006168
611,0.78630209
612,0.817361355
613,0.851150036
614,0.88466692
615,0.918011665
616,0.950754166
617,0.985134125
618,1.016244411
619,1.04978323
620,1.081031322
621,1.110901356
622,1.13902998
623,1.163163185
624,1.18639946
625,1.20354557
626,1.222349644
627,1.233510971
628,1.242611885
629,1.248184204
630,1.247993946
631,1.243476868
632,1.232105732
633,1.217605114
634,1.198853493
635,1.175409317
636,1.147321701
637,1.112337589
638,1.075113773
639,1.036914349
640,0.998185635
641,0.958497047
642,0.916029453
643,0.87258482
644,0.826244831
645,0.780115128
646,0.733504772
647,0.686739922
648,0.642457008
649,0.598692417
650,0.556006432
651,0.515153885
652,0.476421356
653,0.439153671
654,0.403523922
655,0.37304163
656,0.338243961
657,0.29870224
658,0.285830498
659,0.260037422
660,0.236749172
661,0.214914799
662,0.19503355
663,0.176635265
664,0.159920216
665,0.144434929
666,0.130018711
667,0.1170187
668,0.105298519
669,0.09440136
670,0.084755898
671,0.075968742
672,0.068126202
673,0.059788704
674,0.053350449
675,0.047335148
676,0.041740894
677,0.036682129
678,0.032411098
679,0.028083801
680,0.024283409
681,0.020727158
682,0.017686844
683,0.014698029
684,0.012674332
685,0.010259151
686,0.007372379
687,0.005675316
688,0.003745079
689,0.002379894
690,0.000980377
691,-0.000154018
692,-0.001613617
693,-0.002556801
694,-0.003931999
695,-0.004313469
696,-0.005661964
697,-0.005105972
698,-0.007208347
699,-0.007484913
700,-0.008015156
701,-0.008547783
702,-0.00855875
703,-0.009189129
704,-0.009986401
705,-0.010368824
706,-0.010242939
707,-0.010043144
708,-0.011507988
709,-0.011875629
710,-0.011592388
711,-0.011840343
712,-0.012340546
713,-0.012104034
714,-0.012427807
715,-0.012879848
716,-0.013390541
717,-0.013493061
718,-0.013103485
719,-0.013537407
720,-0.013945103
721,-0.013820648
722,-0.014147282
723,-0.01411581
724,-0.013949871
725,-0.013820648
726,-0.013892651
727,-0.014507771
728,-0.01427412
729,-0.014390469
730,-0.014540195
731,-0.0145998
732,-0.015417576
733,-0.015437126
734,-0.014861584
735,-0.015574455
736,-0.015512466
737,-0.015396118
738,-0.015935421
739,-0.015264034
740,-0.015685558
741,-0.016815186
742,-0.01633358
743,-0.016655922
744,-0.01647377
745,-0.016153336
746,-0.016022682
747,-0.016006947
748,-0.016671181
749,-0.016806126
750,-0.016512871
751,-0.01714325
752,-0.017281532
753,-0.016622543
754,-0.016453743
755,-0.017467022
756,-0.017033577
757,-0.01656723
758,-0.017338276
759,-0.017738819
760,-0.01715374
761,-0.018038273
762,-0.019218922
763,-0.017848015
764,-0.016746044
765,-0.017605305
766,-0.019202709
767,-0.019548893
768,-0.017323971
769,-0.017101765
770,-0.018190384
771,-0.018628597
772,-0.019501686
773,-0.019135475
774,-0.018361092
775,-0.018564701
776,-0.018732071
777,-0.018891811
778,-0.018217564
779,-0.017426968
780,-0.018603802
781,-0.018792152
782,-0.019013405
783,-0.018410206
784,-0.018829823
785,-0.019183636
786,-0.018966675
787,-0.018249035
788,-0.018116951
789,-0.018910408
790,-0.019634247
791,-0.018661499
792,-0.018698215
793,-0.019260406
794,-0.017924786
795,-0.018391132
796,-0.020139217
797,-0.019808769
798,-0.018827915
799,-0.01881218
800,-0.01953125
801,-0.019534588
802,-0.019212246
803,-0.019169807
804,-0.019943714
805,-0.019449234
806,-0.018420219
807,-0.019776821
808,-0.020252228
809,-0.019970894
810,-0.020279408
811,-0.020503521
812,-0.020127296
813,-0.019648552
814,-0.020397186
815,-0.020390987
816,-0.020402431
817,-0.020619392
818,-0.020785332
819,-0.02083683
820,-0.020617485
821,-0.020742416
822,-0.020981789
823,-0.021830559
824,-0.021309376
825,-0.020802975
826,-0.021770477
827,-0.02123642
828,-0.021438599
829,-0.022057533
830,-0.022073269
831,-0.022266865
832,-0.022170544
833,-0.021394253
834,-0.021507263
835,-0.022243977
836,-0.022265434
837,-0.022794724
838,-0.022512913
839,-0.022024632
840,-0.02253294
841,-0.022271156
842,-0.022596359
843,-0.022554874
844,-0.022398472
845,-0.022620201
846,-0.022638321
847,-0.022568226
848,-0.022883415
849,-0.022551537
850,-0.022981167
851,-0.022738457
852,-0.021835804
853,-0.021888733
854,-0.02231741
855,-0.023450851
856,-0.023420811
857,-0.023380756
858,-0.023220062
859,-0.023047924
860,-0.023443222
861,-0.023141861
862,-0.02320385
863,-0.022838593
864,-0.02304554
865,-0.023547649
866,-0.023160934
867,-0.023332596
868,-0.023213863
869,-0.023464203
870,-0.023306847
871,-0.023292542
872,-0.023355484
873,-0.023251534
874,-0.02345705
875,-0.023121357
876,-0.023655415
877,-0.02326107
878,-0.023220062
879,-0.023015022
880,-0.023162842
881,-0.023848057
882,-0.023725033
883,-0.023694038
884,-0.023469925
885,-0.023452282
886,-0.023578644
887,-0.023953915
888,-0.023878098
889,-0.024161339
890,-0.023787498
891,-0.023887634
892,-0.023860931
893,-0.024017334
894,-0.024027348
895,-0.024051189
896,-0.024003983
897,-0.024014473
898,-0.024110794
899,-0.024448872
900,-0.024245262
901,-0.024370193
902,-0.02452755
903,-0.024290562
904,-0.024365902
905,-0.024626255
906,-0.024477959
907,-0.024662971
908,-0.025012493
909,-0.024898052
910,-0.024648666
911,-0.024852753
912,-0.024932384
913,-0.024940491
914,-0.025080681
915,-0.024927616
916,-0.024612427
917,-0.024937153
918,-0.025168419
919,-0.025608063
920,-0.025444984
921,-0.025765419
922,-0.025638103
923,-0.025856018
924,-0.025728226
925,-0.025790215
926,-0.025902748
927,-0.025936604
928,-0.02606678
929,-0.026071072
930,-0.026247978
931,-0.026414871
932,-0.026299477
933,-0.026373386
934,-0.026577473
935,-0.026613235
936,-0.02671957
937,-0.026810169
938,-0.026868343
939,-0.027028561
940,-0.026760101
941,-0.027145386
942,-0.027243137
943,-0.02713871
944,-0.027634144
945,-0.027560234
946,-0.027761459
947,-0.027761459
948,-0.027894974
949,-0.028214931
950,-0.02808857
951,-0.02804184
952,-0.028113842
953,-0.028537273
954,-0.028672218
955,-0.028833866
956,-0.028788567
957,-0.02875948
958,-0.028300285
959,-0.028038979
960,-0.028465271
961,-0.028251648
962,-0.028143406
963,-0.027990818
964,-0.027628899
965,-0.027671337
966,-0.027403831
967,-0.0276618
968,-0.027580738
969,-0.027770042
970,-0.027882099
971,-0.02781105
972,-0.02774334
973,-0.027930737
974,-0.027457237
975,-0.027590752
976,-0.027493954
977,-0.027671814
978,-0.027426243
979,-0.027881622
980,-0.027876377
981,-0.027568817
982,-0.027121544
983,-0.02773428
984,-0.027509212
985,-0.027126789
986,-0.027297974
987,-0.027627945
988,-0.027779579
989,-0.027741909
990,-0.027943134
991,-0.028048992
992,-0.027086735
993,-0.028065681
994,-0.027675152
995,-0.027561188
996,-0.027617931
997,-0.027837276
998,-0.027118683
999,-0.027724266
1000,-0.02744627
1001,-0.027287483
1002,-0.027663708
1003,-0.027423382
1004,-0.028228283
1005,-0.027650356
1006,-0.027871609
1007,-0.028425694
1008,-0.028543949
1009,-0.027929306
1010,-0.028194427
1011,-0.028360367
1012,-0.027871609
1013,-0.028652191
1014,-0.028595448
1015,-0.027837753
1016,-0.029459953
1017,-0.028656006
1018,-0.028036118
1019,-0.027984619
1020,-0.029212475
1021,-0.028799534
1022,-0.029446125
1023,-0.029712677
1024,-0.029164791
1025,-0.02986908
1026,-0.03030777
1027,-0.029911518
1028,-0.029736996
1029,-0.030254841
1030,-0.029546261
1031,-0.030116558
1032,-0.0291605
1033,-0.029065609
1034,-0.029416561
1035,-0.02892971
1036,-0.030501366
1037,-0.031123161
1038,-0.030073166
1039,-0.030891418
1040,-0.030561924
1041,-0.030730724
1042,-0.031024933
1043,-0.032312393
1044,-0.032187939
1045,-0.03153801
1046,-0.0321908
1047,-0.030966759
1048,-0.029745102
1049,-0.031195641
1050,-0.031692505
1051,-0.031497002
1052,-0.030920506
1053,-0.03213501
1054,-0.032145977
1055,-0.032494545
1056,-0.031237602
1057,-0.032968044
1058,-0.031455994
1059,-0.0312953
1060,-0.032640934
1061,-0.034826279
1062,-0.034430027
1063,-0.032045841
1064,-0.031181335
1065,-0.028875828
1066,-0.035973549
1067,-0.034104824
1068,-0.030479908
1069,-0.031544685
1070,-0.034022808
1071,-0.033210754
1072,-0.032981396
1073,-0.031552792
1074,-0.038780212
1075,-0.033132553
1076,-0.035798073
1077,-0.033420086
1078,-0.033572674
1079,-0.030868053
1080,-0.031465054
1081,-0.035518169
1082,-0.036356926
1083,-0.034582615
1084,-0.033757687
1085,-0.03126812
1086,-0.033217907
1087,-0.032948971
1088,-0.033440113
1089,-0.036435604
1090,-0.032509327
1091,-0.026946545
1092,-0.035371304
1093,-0.038050652
1094,-0.031715393
1095,-0.034084797
1096,-0.033383369
1097,-0.028271675
1098,-0.03619194
1099,-0.03340435
1100,-0.037591457