Created as New Dataset,Sample 114 By Administrator Date Thursday, July 30 2020
cm-1,A,
4000,0.2105,
3998,0.1954,
3996,0.1842,
3994,0.1768,
3992,0.1724,
3990,0.1706,
3988,0.1706,
3986,0.1722,
3984,0.1751,
3982,0.1792,
3980,0.1848,
3978,0.1922,
3976,0.202,
3974,0.2145,
3972,0.23,
3970,0.2479,
3968,0.2662,
3966,0.2821,
3964,0.2934,
3962,0.299,
3960,0.2989,
3958,0.2946,
3956,0.2886,
3954,0.2826,
3952,0.277,
3950,0.2714,
3948,0.2655,
3946,0.2598,
3944,0.2544,
3942,0.2494,
3940,0.2446,
3938,0.2392,
3936,0.2327,
3934,0.2242,
3932,0.214,
3930,0.2034,
3928,0.1938,
3926,0.1858,
3924,0.1798,
3922,0.176,
3920,0.1743,
3918,0.1746,
3916,0.1764,
3914,0.1787,
3912,0.1809,
3910,0.1823,
3908,0.1826,
3906,0.1818,
3904,0.1803,
3902,0.1786,
3900,0.178,
3898,0.1797,
3896,0.1831,
3894,0.1872,
3892,0.1906,
3890,0.1916,
3888,0.1899,
3886,0.1866,
3884,0.1836,
3882,0.1814,
3880,0.18,
3878,0.1786,
3876,0.1767,
3874,0.1755,
3872,0.1752,
3870,0.1758,
3868,0.1767,
3866,0.1761,
3864,0.1744,
3862,0.1713,
3860,0.1677,
3858,0.1648,
3856,0.1631,
3854,0.1615,
3852,0.1592,
3850,0.1575,
3848,0.1554,
3846,0.1533,
3844,0.1516,
3842,0.1501,
3840,0.1488,
3838,0.1483,
3836,0.1487,
3834,0.1499,
3832,0.1517,
3830,0.1539,
3828,0.1562,
3826,0.1585,
3824,0.1606,
3822,0.1626,
3820,0.1651,
3818,0.167,
3816,0.1682,
3814,0.1688,
3812,0.1685,
3810,0.1685,
3808,0.1701,
3806,0.1739,
3804,0.1783,
3802,0.1821,
3800,0.1842,
3798,0.1837,
3796,0.1822,
3794,0.1808,
3792,0.1806,
3790,0.1813,
3788,0.1817,
3786,0.1808,
3784,0.1782,
3782,0.1748,
3780,0.1713,
3778,0.1687,
3776,0.1671,
3774,0.1664,
3772,0.1663,
3770,0.167,
3768,0.1687,
3766,0.1716,
3764,0.1762,
3762,0.1823,
3760,0.1907,
3758,0.2002,
3756,0.2073,
3754,0.2095,
3752,0.2052,
3750,0.1948,
3748,0.1843,
3746,0.1759,
3744,0.1685,
3742,0.1644,
3740,0.1629,
3738,0.1638,
3736,0.1671,
3734,0.1731,
3732,0.1796,
3730,0.1854,
3728,0.1894,
3726,0.192,
3724,0.1935,
3722,0.1956,
3720,0.1994,
3718,0.2044,
3716,0.2087,
3714,0.2096,
3712,0.2061,
3710,0.1986,
3708,0.19,
3706,0.1817,
3704,0.1738,
3702,0.1666,
3700,0.1609,
3698,0.1568,
3696,0.1542,
3694,0.1526,
3692,0.1522,
3690,0.1531,
3688,0.1543,
3686,0.1552,
3684,0.1559,
3682,0.1565,
3680,0.1566,
3678,0.1561,
3676,0.1534,
3674,0.1495,
3672,0.1456,
3670,0.1418,
3668,0.1389,
3666,0.1372,
3664,0.1365,
3662,0.1369,
3660,0.1385,
3658,0.1411,
3656,0.1446,
3654,0.1479,
3652,0.1503,
3650,0.1519,
3648,0.1523,
3646,0.1532,
3644,0.1558,
3642,0.1608,
3640,0.1683,
3638,0.176,
3636,0.1807,
3634,0.1801,
3632,0.1754,
3630,0.167,
3628,0.156,
3626,0.147,
3624,0.1403,
3622,0.1354,
3620,0.1316,
3618,0.1283,
3616,0.1256,
3614,0.1234,
3612,0.1214,
3610,0.1196,
3608,0.1183,
3606,0.1177,
3604,0.1175,
3602,0.1174,
3600,0.1172,
3598,0.1168,
3596,0.1164,
3594,0.1163,
3592,0.1166,
3590,0.1173,
3588,0.1187,
3586,0.1206,
3584,0.1216,
3582,0.1218,
3580,0.122,
3578,0.1225,
3576,0.1236,
3574,0.1254,
3572,0.1281,
3570,0.1318,
3568,0.1361,
3566,0.1394,
3564,0.1396,
3562,0.1372,
3560,0.1334,
3558,0.1294,
3556,0.1261,
3554,0.1237,
3552,0.122,
3550,0.1209,
3548,0.1205,
3546,0.1206,
3544,0.1206,
3542,0.1202,
3540,0.1195,
3538,0.1189,
3536,0.1182,
3534,0.1174,
3532,0.1167,
3530,0.1161,
3528,0.1157,
3526,0.1154,
3524,0.1154,
3522,0.1154,
3520,0.1158,
3518,0.1164,
3516,0.1174,
3514,0.1185,
3512,0.12,
3510,0.1218,
3508,0.1241,
3506,0.126,
3504,0.1274,
3502,0.1278,
3500,0.1277,
3498,0.1279,
3496,0.1284,
3494,0.1286,
3492,0.1286,
3490,0.1285,
3488,0.1287,
3486,0.1294,
3484,0.1303,
3482,0.1316,
3480,0.1331,
3478,0.1346,
3476,0.1366,
3474,0.1393,
3472,0.143,
3470,0.148,
3468,0.154,
3466,0.1608,
3464,0.1683,
3462,0.1762,
3460,0.1839,
3458,0.1915,
3456,0.1995,
3454,0.2084,
3452,0.2178,
3450,0.2267,
3448,0.2342,
3446,0.2393,
3444,0.2424,
3442,0.2441,
3440,0.2444,
3438,0.2416,
3436,0.2344,
3434,0.2235,
3432,0.2115,
3430,0.2005,
3428,0.1908,
3426,0.1821,
3424,0.1747,
3422,0.1685,
3420,0.1635,
3418,0.1594,
3416,0.1561,
3414,0.1534,
3412,0.151,
3410,0.149,
3408,0.1475,
3406,0.1466,
3404,0.1466,
3402,0.1472,
3400,0.1477,
3398,0.1474,
3396,0.1469,
3394,0.1464,
3392,0.1463,
3390,0.1464,
3388,0.1466,
3386,0.1473,
3384,0.1486,
3382,0.1503,
3380,0.1519,
3378,0.1527,
3376,0.1528,
3374,0.1527,
3372,0.1531,
3370,0.1546,
3368,0.1573,
3366,0.1613,
3364,0.1668,
3362,0.1732,
3360,0.1794,
3358,0.1836,
3356,0.1848,
3354,0.1827,
3352,0.1782,
3350,0.1727,
3348,0.1679,
3346,0.1653,
3344,0.1657,
3342,0.1692,
3340,0.1752,
3338,0.1814,
3336,0.185,
3334,0.1848,
3332,0.182,
3330,0.179,
3328,0.178,
3326,0.1803,
3324,0.1855,
3322,0.1922,
3320,0.198,
3318,0.2008,
3316,0.2003,
3314,0.1978,
3312,0.1946,
3310,0.1915,
3308,0.1887,
3306,0.1863,
3304,0.1846,
3302,0.1841,
3300,0.1849,
3298,0.1861,
3296,0.1862,
3294,0.1849,
3292,0.1824,
3290,0.1794,
3288,0.1769,
3286,0.1755,
3284,0.1756,
3282,0.1768,
3280,0.1781,
3278,0.1784,
3276,0.1767,
3274,0.1732,
3272,0.1684,
3270,0.163,
3268,0.1576,
3266,0.153,
3264,0.1495,
3262,0.1468,
3260,0.1447,
3258,0.1429,
3256,0.1414,
3254,0.1401,
3252,0.1389,
3250,0.138,
3248,0.1372,
3246,0.1366,
3244,0.1367,
3242,0.1374,
3240,0.1388,
3238,0.1403,
3236,0.1417,
3234,0.1426,
3232,0.1429,
3230,0.1425,
3228,0.1415,
3226,0.1399,
3224,0.1381,
3222,0.1362,
3220,0.1346,
3218,0.1334,
3216,0.1327,
3214,0.1325,
3212,0.1329,
3210,0.1336,
3208,0.1345,
3206,0.1355,
3204,0.1367,
3202,0.1381,
3200,0.1396,
3198,0.141,
3196,0.1428,
3194,0.1448,
3192,0.1468,
3190,0.1492,
3188,0.1521,
3186,0.1559,
3184,0.1608,
3182,0.1668,
3180,0.1743,
3178,0.1836,
3176,0.1949,
3174,0.2084,
3172,0.2239,
3170,0.2409,
3168,0.2583,
3166,0.2746,
3164,0.2884,
3162,0.2994,
3160,0.3086,
3158,0.3166,
3156,0.3226,
3154,0.3244,
3152,0.3193,
3150,0.3069,
3148,0.2896,
3146,0.271,
3144,0.2534,
3142,0.238,
3140,0.225,
3138,0.214,
3136,0.205,
3134,0.1981,
3132,0.193,
3130,0.1893,
3128,0.1864,
3126,0.1837,
3124,0.181,
3122,0.1784,
3120,0.1763,
3118,0.175,
3116,0.1742,
3114,0.1734,
3112,0.1726,
3110,0.1726,
3108,0.174,
3106,0.1773,
3104,0.1825,
3102,0.1894,
3100,0.1971,
3098,0.2053,
3096,0.2127,
3094,0.2171,
3092,0.217,
3090,0.2124,
3088,0.2051,
3086,0.1971,
3084,0.1895,
3082,0.1825,
3080,0.1762,
3078,0.171,
3076,0.1669,
3074,0.1644,
3072,0.1632,
3070,0.1629,
3068,0.163,
3066,0.1636,
3064,0.1649,
3062,0.1672,
3060,0.1701,
3058,0.1734,
3056,0.1768,
3054,0.1802,
3052,0.1837,
3050,0.1875,
3048,0.1917,
3046,0.1964,
3044,0.2016,
3042,0.2074,
3040,0.2144,
3038,0.2225,
3036,0.2316,
3034,0.2411,
3032,0.2511,
3030,0.262,
3028,0.2741,
3026,0.2885,
3024,0.3053,
3022,0.3243,
3020,0.3445,
3018,0.3657,
3016,0.3876,
3014,0.4081,
3012,0.4252,
3010,0.4397,
3008,0.4549,
3006,0.4734,
3004,0.4967,
3002,0.5251,
3000,0.5589,
2998,0.5976,
2996,0.6417,
2994,0.692,
2992,0.7491,
2990,0.8122,
2988,0.881,
2986,0.9559,
2984,1.0385,
2982,1.1306,
2980,1.2331,
2978,1.3464,
2976,1.4713,
2974,1.6094,
2972,1.7628,
2970,1.9344,
2968,2.1267,
2966,2.3401,
2964,2.5675,
2962,2.7837,
2960,2.9337,
2958,3.0197,
2956,3.0714,
2954,3.1609,
2952,3.2279,
2950,3.2762,
2948,3.3607,
2946,3.4815,
2944,3.51,
2942,3.4803,
2940,3.4455,
2938,3.4982,
2936,3.5499,
2934,3.6434,
2932,3.7379,
2930,3.9014,
2928,3.9588,
2926,4.1435,
2924,4.257,
2922,4.3156,
2920,4.2979,
2918,4.316,
2916,4.3013,
2914,4.2915,
2912,4.4338,
2910,4.5598,
2908,4.4625,
2906,4.2417,
2904,4.2355,
2902,4.2345,
2900,4.2809,
2898,4.2527,
2896,4.2904,
2894,4.2635,
2892,4.3446,
2890,4.3592,
2888,4.3928,
2886,4.453,
2884,4.7967,
2882,5.3386,
2880,4.8425,
2878,4.8475,
2876,4.7815,
2874,4.8841,
2872,4.1617,
2870,3.9344,
2868,3.7848,
2866,3.7176,
2864,3.6025,
2862,3.5609,
2860,3.5135,
2858,3.4578,
2856,3.3651,
2854,3.31,
2852,3.2597,
2850,3.2667,
2848,3.255,
2846,3.2089,
2844,3.1585,
2842,3.1745,
2840,3.2336,
2838,3.2389,
2836,3.1003,
2834,2.8711,
2832,2.5479,
2830,2.23,
2828,1.953,
2826,1.7257,
2824,1.5478,
2822,1.4204,
2820,1.3411,
2818,1.2881,
2816,1.2201,
2814,1.1236,
2812,1.0243,
2810,0.9465,
2808,0.899,
2806,0.8849,
2804,0.9067,
2802,0.9675,
2800,1.0722,
2798,1.2263,
2796,1.419,
2794,1.5811,
2792,1.5809,
2790,1.4118,
2788,1.1993,
2786,1.0187,
2784,0.8865,
2782,0.7972,
2780,0.7378,
2778,0.692,
2776,0.6418,
2774,0.5791,
2772,0.5116,
2770,0.451,
2768,0.4029,
2766,0.3662,
2764,0.3371,
2762,0.3131,
2760,0.2932,
2758,0.2771,
2756,0.2642,
2754,0.2539,
2752,0.2455,
2750,0.2381,
2748,0.2312,
2746,0.225,
2744,0.2198,
2742,0.2162,
2740,0.2139,
2738,0.2125,
2736,0.2115,
2734,0.2101,
2732,0.2089,
2730,0.2086,
2728,0.2101,
2726,0.2137,
2724,0.2196,
2722,0.228,
2720,0.2403,
2718,0.2586,
2716,0.2827,
2714,0.3064,
2712,0.3209,
2710,0.3264,
2708,0.333,
2706,0.353,
2704,0.3955,
2702,0.4623,
2700,0.5395,
2698,0.6011,
2696,0.6405,
2694,0.6777,
2692,0.7231,
2690,0.7477,
2688,0.7143,
2686,0.6411,
2684,0.5703,
2682,0.5202,
2680,0.4891,
2678,0.4698,
2676,0.4591,
2674,0.4608,
2672,0.4838,
2670,0.5395,
2668,0.6435,
2666,0.8179,
2664,1.0869,
2662,1.4446,
2660,1.7201,
2658,1.6378,
2656,1.3743,
2654,1.0789,
2652,0.8163,
2650,0.6224,
2648,0.4919,
2646,0.406,
2644,0.3474,
2642,0.305,
2640,0.2733,
2638,0.25,
2636,0.2338,
2634,0.2236,
2632,0.2185,
2630,0.218,
2628,0.222,
2626,0.2312,
2624,0.2473,
2622,0.2748,
2620,0.3205,
2618,0.3917,
2616,0.4844,
2614,0.5647,
2612,0.5876,
2610,0.5618,
2608,0.5351,
2606,0.5345,
2604,0.5542,
2602,0.5752,
2600,0.5868,
2598,0.5792,
2596,0.5378,
2594,0.4691,
2592,0.3971,
2590,0.3374,
2588,0.2931,
2586,0.2606,
2584,0.236,
2582,0.2169,
2580,0.2031,
2578,0.1949,
2576,0.1915,
2574,0.1887,
2572,0.1822,
2570,0.1727,
2568,0.1639,
2566,0.1581,
2564,0.1555,
2562,0.1564,
2560,0.1614,
2558,0.172,
2556,0.1873,
2554,0.2013,
2552,0.2039,
2550,0.1925,
2548,0.1754,
2546,0.1606,
2544,0.1512,
2542,0.1466,
2540,0.1459,
2538,0.1482,
2536,0.1515,
2534,0.1525,
2532,0.1493,
2530,0.1437,
2528,0.1386,
2526,0.1359,
2524,0.1355,
2522,0.1363,
2520,0.1369,
2518,0.1374,
2516,0.1389,
2514,0.1422,
2512,0.1473,
2510,0.1528,
2508,0.1557,
2506,0.1542,
2504,0.1486,
2502,0.1413,
2500,0.1345,
2498,0.1298,
2496,0.1271,
2494,0.1262,
2492,0.127,
2490,0.1294,
2488,0.134,
2486,0.1419,
2484,0.1552,
2482,0.1773,
2480,0.2064,
2478,0.2276,
2476,0.2246,
2474,0.203,
2472,0.1788,
2470,0.1598,
2468,0.1466,
2466,0.1374,
2464,0.131,
2462,0.1266,
2460,0.1237,
2458,0.1219,
2456,0.1207,
2454,0.1198,
2452,0.119,
2450,0.1185,
2448,0.1186,
2446,0.1195,
2444,0.1216,
2442,0.1251,
2440,0.1304,
2438,0.136,
2436,0.1397,
2434,0.1401,
2432,0.1385,
2430,0.1373,
2428,0.1383,
2426,0.1422,
2424,0.1481,
2422,0.1545,
2420,0.1628,
2418,0.176,
2416,0.1925,
2414,0.2045,
2412,0.2062,
2410,0.1999,
2408,0.1889,
2406,0.1761,
2404,0.1667,
2402,0.1649,
2400,0.1731,
2398,0.19,
2396,0.2041,
2394,0.2014,
2392,0.1851,
2390,0.1685,
2388,0.1576,
2386,0.1523,
2384,0.1517,
2382,0.1564,
2380,0.1665,
2378,0.1763,
2376,0.1743,
2374,0.1588,
2372,0.1434,
2370,0.1425,
2368,0.1571,
2366,0.1685,
2364,0.16,
2362,0.1412,
2360,0.127,
2358,0.121,
2356,0.1205,
2354,0.1232,
2352,0.1296,
2350,0.1329,
2348,0.1226,
2346,0.1034,
2344,0.0947,
2342,0.0981,
2340,0.0996,
2338,0.0992,
2336,0.0991,
2334,0.0975,
2332,0.095,
2330,0.0953,
2328,0.0977,
2326,0.0975,
2324,0.0934,
2322,0.0895,
2320,0.0896,
2318,0.092,
2316,0.0949,
2314,0.0988,
2312,0.1063,
2310,0.1198,
2308,0.1412,
2306,0.1651,
2304,0.175,
2302,0.1645,
2300,0.1474,
2298,0.1345,
2296,0.1276,
2294,0.1253,
2292,0.1263,
2290,0.13,
2288,0.1361,
2286,0.144,
2284,0.1502,
2282,0.1501,
2280,0.1439,
2278,0.1359,
2276,0.1294,
2274,0.1249,
2272,0.1223,
2270,0.121,
2268,0.121,
2266,0.1223,
2264,0.125,
2262,0.1294,
2260,0.1358,
2258,0.145,
2256,0.1576,
2254,0.1741,
2252,0.1936,
2250,0.2115,
2248,0.2196,
2246,0.2127,
2244,0.1964,
2242,0.1799,
2240,0.1685,
2238,0.1631,
2236,0.1632,
2234,0.1674,
2232,0.1721,
2230,0.1721,
2228,0.1656,
2226,0.157,
2224,0.1513,
2222,0.1481,
2220,0.1443,
2218,0.1401,
2216,0.1383,
2214,0.14,
2212,0.1452,
2210,0.1535,
2208,0.1641,
2206,0.1726,
2204,0.173,
2202,0.1656,
2200,0.1568,
2198,0.1508,
2196,0.1475,
2194,0.1453,
2192,0.1443,
2190,0.1452,
2188,0.1488,
2186,0.1564,
2184,0.1701,
2182,0.1901,
2180,0.2103,
2178,0.2186,
2176,0.2113,
2174,0.1978,
2172,0.1868,
2170,0.1789,
2168,0.1709,
2166,0.1609,
2164,0.1504,
2162,0.1414,
2160,0.1355,
2158,0.1334,
2156,0.1364,
2154,0.1451,
2152,0.1553,
2150,0.1588,
2148,0.1547,
2146,0.1505,
2144,0.1537,
2142,0.1691,
2140,0.1951,
2138,0.2124,
2136,0.2032,
2134,0.1803,
2132,0.1631,
2130,0.1561,
2128,0.1551,
2126,0.1522,
2124,0.1439,
2122,0.1333,
2120,0.1243,
2118,0.1178,
2116,0.1135,
2114,0.1105,
2112,0.1083,
2110,0.1064,
2108,0.1048,
2106,0.1034,
2104,0.1023,
2102,0.1013,
2100,0.1005,
2098,0.1,
2096,0.0996,
2094,0.0993,
2092,0.0989,
2090,0.0986,
2088,0.0985,
2086,0.0985,
2084,0.0986,
2082,0.0989,
2080,0.0995,
2078,0.1004,
2076,0.1019,
2074,0.1041,
2072,0.1074,
2070,0.1125,
2068,0.1197,
2066,0.1281,
2064,0.141,
2062,0.1608,
2060,0.1752,
2058,0.1686,
2056,0.1489,
2054,0.1318,
2052,0.1213,
2050,0.1156,
2048,0.1135,
2046,0.1143,
2044,0.1167,
2042,0.1179,
2040,0.116,
2038,0.1121,
2036,0.1083,
2034,0.1054,
2032,0.1035,
2030,0.1024,
2028,0.102,
2026,0.1024,
2024,0.1038,
2022,0.106,
2020,0.1082,
2018,0.1092,
2016,0.1086,
2014,0.1072,
2012,0.1059,
2010,0.1052,
2008,0.105,
2006,0.1057,
2004,0.1073,
2002,0.1103,
2000,0.1159,
1998,0.1266,
1996,0.1425,
1994,0.1597,
1992,0.1795,
1990,0.1959,
1988,0.1955,
1986,0.1775,
1984,0.1537,
1982,0.1344,
1980,0.1219,
1978,0.1142,
1976,0.1093,
1974,0.1062,
1972,0.1041,
1970,0.1026,
1968,0.1017,
1966,0.1015,
1964,0.1015,
1962,0.1009,
1960,0.1,
1958,0.099,
1956,0.0983,
1954,0.0982,
1952,0.0983,
1950,0.0985,
1948,0.0988,
1946,0.0991,
1944,0.0996,
1942,0.1007,
1940,0.1024,
1938,0.1042,
1936,0.107,
1934,0.1106,
1932,0.1137,
1930,0.1147,
1928,0.1136,
1926,0.1114,
1924,0.1094,
1922,0.1084,
1920,0.1075,
1918,0.1056,
1916,0.1041,
1914,0.1019,
1912,0.1002,
1910,0.0992,
1908,0.0987,
1906,0.0986,
1904,0.0987,
1902,0.0994,
1900,0.1006,
1898,0.1022,
1896,0.1036,
1894,0.1049,
1892,0.1062,
1890,0.1084,
1888,0.1127,
1886,0.1164,
1884,0.1185,
1882,0.1207,
1880,0.1253,
1878,0.1335,
1876,0.1435,
1874,0.1521,
1872,0.1564,
1870,0.1552,
1868,0.1479,
1866,0.1368,
1864,0.1257,
1862,0.1176,
1860,0.1123,
1858,0.1091,
1856,0.1069,
1854,0.1054,
1852,0.1044,
1850,0.1037,
1848,0.1039,
1846,0.1046,
1844,0.1067,
1842,0.1111,
1840,0.1147,
1838,0.1187,
1836,0.122,
1834,0.1233,
1832,0.1225,
1830,0.12,
1828,0.1177,
1826,0.1147,
1824,0.1124,
1822,0.11,
1820,0.1074,
1818,0.1059,
1816,0.1049,
1814,0.1038,
1812,0.1024,
1810,0.1013,
1808,0.1005,
1806,0.1,
1804,0.0998,
1802,0.0999,
1800,0.1006,
1798,0.1011,
1796,0.1022,
1794,0.1038,
1792,0.1063,
1790,0.1093,
1788,0.11,
1786,0.1103,
1784,0.1137,
1782,0.1222,
1780,0.1395,
1778,0.1577,
1776,0.1595,
1774,0.1449,
1772,0.1254,
1770,0.1132,
1768,0.1076,
1766,0.105,
1764,0.1017,
1762,0.099,
1760,0.098,
1758,0.0964,
1756,0.096,
1754,0.096,
1752,0.0952,
1750,0.0955,
1748,0.0953,
1746,0.0958,
1744,0.0974,
1742,0.0994,
1740,0.101,
1738,0.1034,
1736,0.104,
1734,0.104,
1732,0.1044,
1730,0.1019,
1728,0.1013,
1726,0.1007,
1724,0.0998,
1722,0.0995,
1720,0.0987,
1718,0.0977,
1716,0.0976,
1714,0.0981,
1712,0.0994,
1710,0.1004,
1708,0.1014,
1706,0.1019,
1704,0.1038,
1702,0.1051,
1700,0.1076,
1698,0.1107,
1696,0.1126,
1694,0.1219,
1692,0.1285,
1690,0.1346,
1688,0.1397,
1686,0.1415,
1684,0.1427,
1682,0.1429,
1680,0.1377,
1678,0.1316,
1676,0.1247,
1674,0.1193,
1672,0.115,
1670,0.1115,
1668,0.1109,
1666,0.1109,
1664,0.1102,
1662,0.11,
1660,0.1103,
1658,0.1101,
1656,0.1104,
1654,0.1105,
1652,0.114,
1650,0.1177,
1648,0.1197,
1646,0.1225,
1644,0.1231,
1642,0.1216,
1640,0.1202,
1638,0.1176,
1636,0.1133,
1634,0.1107,
1632,0.1095,
1630,0.1079,
1628,0.1065,
1626,0.105,
1624,0.1035,
1622,0.1029,
1620,0.1027,
1618,0.1018,
1616,0.1013,
1614,0.1018,
1612,0.1023,
1610,0.1033,
1608,0.1038,
1606,0.1044,
1604,0.1053,
1602,0.1065,
1600,0.1083,
1598,0.1105,
1596,0.1127,
1594,0.1145,
1592,0.1162,
1590,0.1176,
1588,0.1188,
1586,0.1193,
1584,0.119,
1582,0.1178,
1580,0.1164,
1578,0.1143,
1576,0.1121,
1574,0.1115,
1572,0.1109,
1570,0.1105,
1568,0.1109,
1566,0.1109,
1564,0.1118,
1562,0.1124,
1560,0.1127,
1558,0.1124,
1556,0.1143,
1554,0.1166,
1552,0.1202,
1550,0.1223,
1548,0.1257,
1546,0.128,
1544,0.1324,
1542,0.1366,
1540,0.143,
1538,0.1527,
1536,0.1576,
1534,0.1578,
1532,0.1572,
1530,0.1558,
1528,0.1555,
1526,0.1568,
1524,0.159,
1522,0.1613,
1520,0.168,
1518,0.1736,
1516,0.1818,
1514,0.1913,
1512,0.2016,
1510,0.2124,
1508,0.2237,
1506,0.2381,
1504,0.2501,
1502,0.2555,
1500,0.2628,
1498,0.2705,
1496,0.2821,
1494,0.2946,
1492,0.3075,
1490,0.3254,
1488,0.3485,
1486,0.3721,
1484,0.3989,
1482,0.4293,
1480,0.4673,
1478,0.5084,
1476,0.5609,
1474,0.6234,
1472,0.7157,
1470,0.8201,
1468,0.9321,
1466,1.0763,
1464,1.2939,
1462,1.5481,
1460,1.8637,
1458,2.2993,
1456,2.9211,
1454,2.9669,
1452,2.8854,
1450,2.9796,
1448,2.8913,
1446,3.0104,
1444,2.9821,
1442,2.879,
1440,2.3007,
1438,1.7864,
1436,1.3925,
1434,1.147,
1432,0.9809,
1430,0.8432,
1428,0.7399,
1426,0.665,
1424,0.6034,
1422,0.555,
1420,0.5129,
1418,0.4701,
1416,0.4358,
1414,0.4067,
1412,0.381,
1410,0.359,
1408,0.3404,
1406,0.3244,
1404,0.3104,
1402,0.2995,
1400,0.2899,
1398,0.2813,
1396,0.2725,
1394,0.2636,
1392,0.2553,
1390,0.248,
1388,0.2419,
1386,0.2373,
1384,0.2329,
1382,0.2299,
1380,0.2278,
1378,0.2266,
1376,0.2255,
1374,0.2253,
1372,0.2265,
1370,0.2284,
1368,0.2314,
1366,0.2356,
1364,0.2407,
1362,0.2486,
1360,0.2582,
1358,0.27,
1356,0.2869,
1354,0.3103,
1352,0.3301,
1350,0.3328,
1348,0.3237,
1346,0.3152,
1344,0.3069,
1342,0.2969,
1340,0.2855,
1338,0.2748,
1336,0.2652,
1334,0.2573,
1332,0.2511,
1330,0.2467,
1328,0.2436,
1326,0.2414,
1324,0.2386,
1322,0.2345,
1320,0.2292,
1318,0.2245,
1316,0.2213,
1314,0.2196,
1312,0.2189,
1310,0.2189,
1308,0.2191,
1306,0.2202,
1304,0.222,
1302,0.2243,
1300,0.2262,
1298,0.2279,
1296,0.2299,
1294,0.2328,
1292,0.2371,
1290,0.2433,
1288,0.2511,
1286,0.2598,
1284,0.2686,
1282,0.2787,
1280,0.2916,
1278,0.3083,
1276,0.3298,
1274,0.3575,
1272,0.393,
1270,0.4383,
1268,0.4934,
1266,0.5596,
1264,0.6457,
1262,0.7743,
1260,0.9683,
1258,1.1724,
1256,1.1572,
1254,0.9267,
1252,0.7033,
1250,0.5448,
1248,0.4403,
1246,0.371,
1244,0.3229,
1242,0.2877,
1240,0.2609,
1238,0.2401,
1236,0.2234,
1234,0.2098,
1232,0.1985,
1230,0.189,
1228,0.1807,
1226,0.1732,
1224,0.1664,
1222,0.1602,
1220,0.1548,
1218,0.1503,
1216,0.1464,
1214,0.1433,
1212,0.1406,
1210,0.1386,
1208,0.1368,
1206,0.1353,
1204,0.1333,
1202,0.1309,
1200,0.1283,
1198,0.1258,
1196,0.1238,
1194,0.1222,
1192,0.1209,
1190,0.12,
1188,0.1193,
1186,0.1189,
1184,0.1186,
1182,0.1186,
1180,0.1186,
1178,0.119,
1176,0.1196,
1174,0.1206,
1172,0.1218,
1170,0.1234,
1168,0.1253,
1166,0.1276,
1164,0.1301,
1162,0.1327,
1160,0.1351,
1158,0.1367,
1156,0.1369,
1154,0.1359,
1152,0.1346,
1150,0.1333,
1148,0.1324,
1146,0.1319,
1144,0.1317,
1142,0.132,
1140,0.1326,
1138,0.1335,
1136,0.1348,
1134,0.1366,
1132,0.1386,
1130,0.1411,
1128,0.144,
1126,0.1474,
1124,0.1513,
1122,0.1557,
1120,0.1606,
1118,0.1661,
1116,0.172,
1114,0.1778,
1112,0.1826,
1110,0.1856,
1108,0.1858,
1106,0.1835,
1104,0.1796,
1102,0.1751,
1100,0.1708,
1098,0.1672,
1096,0.164,
1094,0.161,
1092,0.1582,
1090,0.1558,
1088,0.1538,
1086,0.1524,
1084,0.1513,
1082,0.1509,
1080,0.1506,
1078,0.1507,
1076,0.1511,
1074,0.1521,
1072,0.1535,
1070,0.1557,
1068,0.1582,
1066,0.161,
1064,0.164,
1062,0.1677,
1060,0.1723,
1058,0.1782,
1056,0.1857,
1054,0.1963,
1052,0.2117,
1050,0.2357,
1048,0.2748,
1046,0.3394,
1044,0.4427,
1042,0.5864,
1040,0.7167,
1038,0.7257,
1036,0.6235,
1034,0.512,
1032,0.4332,
1030,0.3862,
1028,0.3618,
1026,0.3531,
1024,0.3573,
1022,0.3763,
1020,0.4134,
1018,0.4666,
1016,0.517,
1014,0.532,
1012,0.4965,
1010,0.4285,
1008,0.3545,
1006,0.2903,
1004,0.2404,
1002,0.2041,
1000,0.1784,
998,0.1604,
996,0.1474,
994,0.138,
992,0.1307,
990,0.1251,
988,0.1205,
986,0.1169,
984,0.1138,
982,0.1113,
980,0.1092,
978,0.1075,
976,0.1061,
974,0.105,
972,0.104,
970,0.1033,
968,0.1028,
966,0.1026,
964,0.1028,
962,0.1033,
960,0.1041,
958,0.1055,
956,0.1077,
954,0.1105,
952,0.1132,
950,0.1153,
948,0.117,
946,0.1192,
944,0.1221,
942,0.1241,
940,0.1239,
938,0.1225,
936,0.1217,
934,0.1224,
932,0.1249,
930,0.1294,
928,0.1358,
926,0.1436,
924,0.1524,
922,0.1637,
920,0.179,
918,0.1985,
916,0.2242,
914,0.2623,
912,0.3257,
910,0.4405,
908,0.658,
906,1.0552,
904,1.6426,
902,1.4511,
900,0.9098,
898,0.5834,
896,0.4078,
894,0.3174,
892,0.2702,
890,0.2455,
888,0.2336,
886,0.2301,
884,0.2333,
882,0.2425,
880,0.2584,
878,0.2827,
876,0.3182,
874,0.37,
872,0.4473,
870,0.5671,
868,0.7577,
866,1.0559,
864,1.4854,
862,1.9092,
860,1.7654,
858,1.3147,
856,0.9426,
854,0.6799,
852,0.5051,
850,0.3909,
848,0.3153,
846,0.2639,
844,0.2278,
842,0.2015,
840,0.182,
838,0.1673,
836,0.1564,
834,0.1488,
832,0.1431,
830,0.1379,
828,0.1328,
826,0.1289,
824,0.1262,
822,0.1238,
820,0.121,
818,0.118,
816,0.1151,
814,0.1129,
812,0.1115,
810,0.1107,
808,0.1105,
806,0.1106,
804,0.1108,
802,0.1112,
800,0.1114,
798,0.1117,
796,0.1117,
794,0.1117,
792,0.1117,
790,0.1117,
788,0.1115,
786,0.1111,
784,0.1102,
782,0.109,
780,0.1076,
778,0.1062,
776,0.1048,
774,0.1036,
772,0.1024,
770,0.1014,
768,0.1004,
766,0.0995,
764,0.0988,
762,0.0981,
760,0.0974,
758,0.0968,
756,0.0963,
754,0.0958,
752,0.0955,
750,0.0952,
748,0.0951,
746,0.095,
744,0.0951,
742,0.0954,
740,0.0955,
738,0.0953,
736,0.0952,
734,0.0953,
732,0.0955,
730,0.0959,
728,0.0964,
726,0.0969,
724,0.0973,
722,0.0967,
720,0.0964,
718,0.098,
716,0.0992,
714,0.0997,
712,0.1003,
710,0.1009,
708,0.1016,
706,0.1022,
704,0.103,
702,0.1037,
700,0.1046,
698,0.1056,
696,0.1067,
694,0.1081,
692,0.1096,
690,0.1113,
688,0.1136,
686,0.1163,
684,0.1189,
682,0.1212,
680,0.1235,
678,0.1258,
676,0.1283,
674,0.1308,
672,0.1302,
670,0.1132,
668,0.1064,
666,0.1343,
664,0.1464,
662,0.1466,
660,0.148,
658,0.1494,
656,0.1511,
654,0.1531,
652,0.1551,
650,0.1574,
648,0.1602,
646,0.1634,
644,0.1667,
642,0.1702,
640,0.174,
638,0.1781,
636,0.1825,
634,0.1872,
632,0.1919,
630,0.1969,
628,0.2021,
626,0.2075,
624,0.2128,
622,0.2183,
620,0.2232,
618,0.2278,
616,0.2342,
614,0.2413,
612,0.2477,
610,0.2542,
608,0.2609,
606,0.2678,
604,0.2749,
602,0.2822,
600,0.2895,
598,0.2972,
596,0.3051,
594,0.3136,
592,0.3225,
590,0.3316,
588,0.341,
586,0.3514,
584,0.3624,
582,0.3725,
580,0.3821,
578,0.3924,
576,0.4035,
574,0.415,
572,0.4267,
570,0.439,
568,0.4519,
566,0.4653,
564,0.479,
562,0.4933,
560,0.5084,
558,0.5242,
556,0.5409,
554,0.5587,
552,0.5775,
550,0.597,
548,0.6176,
546,0.6395,
544,0.663,
542,0.6882,
540,0.7161,
538,0.7477,
536,0.7847,
534,0.8312,
532,0.8929,
530,0.9791,
528,1.0963,
526,1.2365,
524,1.325,
522,1.2829,
520,1.1869,
518,1.1223,
516,1.1017,
514,1.1072,
512,1.1259,
510,1.1518,
508,1.1822,
506,1.2154,
504,1.2504,
502,1.2896,
500,1.3279,
498,1.3647,
496,1.4042,
494,1.4436,
492,1.4862,
490,1.5314,
488,1.5786,
486,1.6255,
484,1.6728,
482,1.7198,
480,1.7695,
478,1.8223,
476,1.8719,
474,1.9189,
472,1.97,
470,2.0255,
468,2.0883,
466,2.1392,
464,2.1727,
462,2.2029,
460,2.2671,
458,2.3627,
456,2.4752,
454,2.565,
452,2.6215,
450,2.6883,
