Time (s),Heat Flow (J/s)
0,20.103786
0.19998,20.104064
0.40002,20.104322
0.6,20.104561
0.79998,20.10474
1.00002,20.104879
1.2,20.104998
1.39998,20.105097
1.60002,20.105177
1.8,20.105236
1.99998,20.105316
2.20002,20.105395
2.4,20.105495
2.59998,20.105594
2.80002,20.105713
3,20.105793
3.19998,20.105912
3.40002,20.106031
3.6,20.10615
3.79998,20.106249
4.00002,20.106369
4.2,20.106468
4.39998,20.106547
4.60002,20.106587
4.8,20.106647
4.99998,20.106726
5.20002,20.106806
5.4,20.106845
5.59998,20.106885
5.80002,20.106885
6,20.106879
6.19998,20.106854
6.40002,20.106888
6.6,20.106882
6.79998,20.106817
7.00002,20.106785
7.2,20.1067
7.39998,20.106655
7.60002,20.106564
7.8,20.106479
7.99998,20.106453
8.20002,20.106362
8.4,20.106277
8.59998,20.106212
8.80002,20.106087
9,20.105916
9.19998,20.105752
9.40002,20.105547
9.6,20.105357
9.79998,20.105113
10.00002,20.104824
10.2,20.10446
10.39998,20.103932
10.60002,20.10339
10.8,20.102565
10.99998,20.101149
11.20002,20.099965
11.4,20.098847
11.59998,20.097724
11.80002,20.096665
12,20.095403
12.19998,20.094146
12.40002,20.092943
12.6,20.091859
12.79998,20.090682
13.00002,20.08934
13.2,20.087918
13.39998,20.086205
13.60002,20.084466
13.8,20.082766
13.99998,20.081073
14.20002,20.079294
14.4,20.077794
14.59998,20.07606
14.80002,20.074321
15,20.072404
15.19998,20.070367
15.40002,20.068257
15.6,20.06624
15.79998,20.064283
16.00002,20.062326
16.2,20.060091
16.39998,20.057643
16.60002,20.055071
16.8,20.052717
16.99998,20.049867
17.20002,20.04656
17.4,20.042941
17.59998,20.039356
17.80002,20.03595
18,20.032465
18.19998,20.0289
18.40002,20.025316
18.6,20.021672
18.79998,20.018008
19.00002,20.014325
19.2,20.010666
19.39998,20.006983
19.60002,20.003161
19.8,19.999319
19.99998,19.995537
20.20002,19.991774
20.4,19.987893
20.59998,19.983793
20.80002,19.979714
21,19.975515
21.19998,19.971316
21.40002,19.967182
21.6,19.963024
21.79998,19.958805
22.00002,19.954587
22.2,19.950369
22.39998,19.946152
22.60002,19.941914
22.8,19.937657
22.99998,19.93336
23.20002,19.929043
23.4,19.924687
23.59998,19.92039
23.80002,19.916054
24,19.911777
24.19998,19.907441
24.40002,19.90313
24.6,19.898834
24.79998,19.894557
25.00002,19.890222
25.2,19.885787
25.39998,19.881313
25.60002,19.87662
25.8,19.871848
25.99998,19.866997
26.20002,19.861987
26.4,19.856779
26.59998,19.851575
26.80002,19.846487
27,19.841398
27.19998,19.836349
27.40002,19.831519
27.6,19.826748
27.79998,19.821957
28.00002,19.817207
28.2,19.8125
28.39998,19.807749
28.60002,19.802979
28.8,19.798169
28.99998,19.793359
29.20002,19.788669
29.4,19.783919
29.59998,19.779189
29.80002,19.774482
30,19.769892
30.19998,19.765281
30.40002,19.760651
30.6,19.75606
30.79998,19.75143
31.00002,19.746764
31.2,19.742153
31.39998,19.737583
31.60002,19.733013
31.8,19.728463
31.99998,19.723975
32.20002,19.719525
32.4,19.715054
32.59998,19.710564
32.80002,19.706057
33,19.701487
33.19998,19.696878
33.40002,19.692213
33.6,19.687564
33.79998,19.683154
34.00002,19.678846
34.2,19.674555
34.39998,19.670284
34.60002,19.666055
34.8,19.661923
34.99998,19.657811
35.20002,19.653679
35.4,19.649609
35.59998,19.645557
35.80002,19.641425
36,19.637356
36.19998,19.633264
36.40002,19.629232
36.6,19.625262
36.79998,19.621329
37.00002,19.617475
37.2,19.613625
37.39998,19.609771
37.60002,19.605938
37.8,19.602087
37.99998,19.598294
38.20002,19.594562
38.4,19.590769
38.59998,19.586916
38.80002,19.583165
39,19.579471
39.19998,19.575757
39.40002,19.571967
39.6,19.568273
39.79998,19.56454
40.00002,19.560687
40.2,19.557016
40.39998,19.553303
40.60002,19.549572
40.8,19.546018
40.99998,19.542761
41.20002,19.539903
41.4,19.537241
41.59998,19.534698
41.80002,19.531821
42,19.528881
42.19998,19.525922
42.40002,19.523045
42.6,19.520383
42.79998,19.517781
43.00002,19.515221
43.2,19.512837
43.39998,19.510493
43.60002,19.508231
43.8,19.505966
43.99998,19.503724
44.20002,19.501499
44.4,19.499175
44.59998,19.496893
44.80002,19.494628
45,19.492384
45.19998,19.490201
45.40002,19.487976
45.6,19.485752
45.79998,19.483549
46.00002,19.481484
46.2,19.479438
46.39998,19.477392
46.60002,19.475328
46.8,19.473282
46.99998,19.471238
47.20002,19.469212
47.4,19.467207
47.59998,19.465202
47.80002,19.463157
48,19.461151
48.19998,19.459187
48.40002,19.457439
48.6,19.45577
48.79998,19.454182
49.00002,19.452553
49.2,19.450886
49.39998,19.449257
49.60002,19.447728
49.8,19.446277
49.99998,19.444888
50.20002,19.443556
50.4,19.442167
50.59998,19.440737
50.80002,19.439346
51,19.437996
51.19998,19.436625
51.40002,19.435354
51.6,19.434083
51.79998,19.432851
52.00002,19.431599
52.2,19.430389
52.39998,19.429137
52.60002,19.427867
52.8,19.426615
52.99998,19.425383
53.20002,19.424173
53.4,19.423079
53.59998,19.422125
53.80002,19.421251
54,19.420337
54.19998,19.419402
54.40002,19.418509
54.6,19.417634
54.79998,19.416858
55.00002,19.416083
55.2,19.415327
55.39998,19.414571
55.60002,19.413856
55.8,19.41316
55.99998,19.412384
56.20002,19.411649
56.4,19.410973
56.59998,19.410355
56.80002,19.409759
57,19.409142
57.19998,19.408507
57.40002,19.40787
57.6,19.407272
57.79998,19.406716
58.00002,19.406099
58.2,19.405502
58.39998,19.404965
58.60002,19.404467
58.8,19.404008
58.99998,19.403531
59.20002,19.403053
59.4,19.402614
59.59998,19.402177
59.80002,19.401718
60,19.401339
60.19998,19.400922
60.40002,19.400443
60.6,19.400025
60.79998,19.399785
61.00002,19.399664
61.2,19.399601
61.39998,19.39958
61.60002,19.399538
61.8,19.399456
61.99998,19.399276
62.20002,19.399135
62.4,19.399092
62.59998,19.399051
62.80002,19.399108
63,19.399125
63.19998,19.399104
63.40002,19.399121
63.6,19.399118
63.79998,19.399196
64.00002,19.399312
64.2,19.399449
64.39998,19.399565
64.60002,19.399701
64.8,19.399798
64.99998,19.399915
65.20002,19.400031
65.4,19.400187
65.59998,19.400364
65.80002,19.400519
66,19.400675
66.19998,19.400872
66.40002,19.401047
66.6,19.401223
66.79998,19.401419
67.00002,19.401615
67.2,19.40183
67.39998,19.402086
67.60002,19.40234
67.8,19.402635
67.99998,19.402911
68.20002,19.403205
68.4,19.403499
68.59998,19.403775
68.80002,19.404049
69,19.404304
69.19998,19.4046
69.40002,19.404815
69.6,19.405069
69.79998,19.405246
70.00002,19.405521
70.2,19.406092
70.39998,19.406823
70.60002,19.407494
70.8,19.408065
70.99998,19.408599
71.20002,19.40919
71.4,19.409722
71.59998,19.410215
71.80002,19.410688
72,19.41114
72.19998,19.411574
72.40002,19.412047
72.6,19.412539
72.79998,19.413032
73.00002,19.413524
73.2,19.414017
73.39998,19.414471
73.60002,19.414963
73.8,19.415435
73.99998,19.415968
74.20002,19.41646
74.4,19.416972
74.59998,19.417465
74.80002,19.417938
75,19.41841
75.19998,19.418963
75.40002,19.419475
75.6,19.419986
75.79998,19.420519
76.00002,19.421051
76.2,19.421583
76.39998,19.422116
76.60002,19.422667
76.8,19.423218
76.99998,19.423791
77.20002,19.424401
77.4,19.425012
77.59998,19.425644
77.80002,19.426255
78,19.426885
78.19998,19.427478
78.40002,19.428029
78.6,19.42862
78.79998,19.429271
79.00002,19.429941
79.2,19.430631
79.39998,19.431382
79.60002,19.432131
79.8,19.43282
79.99998,19.433531
80.20002,19.434182
80.4,19.434871
80.59998,19.435562
80.80002,19.436232
81,19.436922
81.19998,19.437593
81.40002,19.438263
81.6,19.438972
81.79998,19.439664
82.00002,19.440373
82.2,19.441082
82.39998,19.441754
82.60002,19.442403
82.8,19.443034
82.99998,19.443646
83.20002,19.444216
83.4,19.444827
83.59998,19.445419
83.80002,19.446029
84,19.446659
84.19998,19.44733
84.40002,19.44798
84.6,19.44859
84.79998,19.449181
85.00002,19.449792
85.2,19.450403
85.39998,19.450993
85.60002,19.451526
85.8,19.452076
85.99998,19.452668
86.20002,19.453199
86.4,19.45375
86.59998,19.454283
86.80002,19.454833
87,19.455404
87.19998,19.455956
87.40002,19.456507
87.6,19.457077
87.79998,19.457628
88.00002,19.4582
88.2,19.458731
88.39998,19.459282
88.60002,19.459814
88.8,19.460345
88.99998,19.460856
89.20002,19.461369
89.4,19.46188
89.59998,19.462371
89.80002,19.462884
90,19.463355
90.19998,19.463866
90.40002,19.464339
90.6,19.464811
90.79998,19.465242
91.00002,19.465656
91.2,19.466068
91.39998,19.46652
91.60002,19.466914
91.8,19.467306
91.99998,19.467718
92.20002,19.468132
92.4,19.468484
92.59998,19.468817
92.80002,19.469132
93,19.469504
93.19998,19.469857
93.40002,19.470211
93.6,19.470564
93.79998,19.470916
94.00002,19.47129
94.2,19.471623
94.39998,19.471995
94.60002,19.472369
94.8,19.472722
94.99998,19.473094
95.20002,19.473468
95.4,19.473841
95.59998,19.474213
95.80002,19.474607
96,19.474979
96.19998,19.475371
96.40002,19.475765
96.6,19.476137
96.79998,19.476509
97.00002,19.476923
97.2,19.477295
97.39998,19.477648
97.60002,19.47798
97.8,19.478315
97.99998,19.478687
98.20002,19.479021
98.4,19.479354
98.59998,19.479647
98.80002,19.479962
99,19.480255
99.19998,19.480607
99.40002,19.480941
99.6,19.481274
99.79998,19.481607
100.00002,19.481941
100.2,19.482254
100.39998,19.482507
100.60002,19.482802
100.8,19.483055
100.99998,19.483329
101.20002,19.483584
101.4,19.483818
101.59998,19.484031
101.80002,19.484267
102,19.484461
102.19998,19.484695
102.40002,19.48493
102.6,19.485184
102.79998,19.485397
103.00002,19.485613
103.2,19.485807
103.39998,19.486021
103.60002,19.486276
103.8,19.48649
103.99998,19.486724
104.20002,19.486939
104.4,19.487153
104.59998,19.487387
104.80002,19.487543
105,19.487717
105.19998,19.487931
105.40002,19.488167
105.6,19.4884
105.79998,19.488693
106.00002,19.488948
106.2,19.489221
106.39998,19.489475
106.60002,19.48973
106.8,19.489963
106.99998,19.490197
107.20002,19.49047
107.4,19.490705
107.59998,19.490959
107.80002,19.491214
108,19.491447
108.19998,19.491661
108.40002,19.491837
108.6,19.492031
108.79998,19.492225
109.00002,19.492421
109.2,19.492595
109.39998,19.492769
109.60002,19.492946
109.8,19.493139
109.99998,19.493314
110.20002,19.493488
110.4,19.493624
110.59998,19.493759
110.80002,19.493876
111,19.49403
111.19998,19.494185
111.40002,19.4944
111.6,19.494574
111.79998,19.494847
112.00002,19.495102
112.2,19.495356
112.39998,19.49555
112.60002,19.495706
112.8,19.49588
112.99998,19.495995
113.20002,19.496072
113.4,19.496286
113.59998,19.496519
113.80002,19.496774
114,19.496988
114.19998,19.497419
114.40002,19.498069
114.6,19.498599
114.79998,19.49899
115.00002,19.499265
115.2,19.499499
115.39998,19.499653
115.60002,19.499829
115.8,19.500023
115.99998,19.500217
116.20002,19.500432
116.4,19.500626
116.59998,19.50082
116.80002,19.501035
117,19.501308
117.19998,19.501561
117.40002,19.501834
117.6,19.502129
117.79998,19.502441
118.00002,19.502775
118.2,19.503127
118.39998,19.503459
118.60002,19.503832
118.8,19.504184
118.99998,19.504516
119.20002,19.504849
119.4,19.505202
119.59998,19.505515
119.80002,19.505849
120,19.50622
120.19998,19.506671
120.40002,19.507161
120.6,19.507712
120.79998,19.508222
121.00002,19.508753
121.2,19.509283
121.39998,19.509813
121.60002,19.510344
121.8,19.510893
121.99998,19.511462
122.20002,19.512093
122.4,19.512662
122.59998,19.51327
122.80002,19.513841
123,19.51445
123.19998,19.515038
123.40002,19.51559
123.6,19.516178
123.79998,19.516767
124.00002,19.517377
124.2,19.517986
124.39998,19.518575
124.60002,19.519185
124.8,19.519813
124.99998,19.520461
125.20002,19.521111
125.4,19.521778
125.59998,19.522486
125.80002,19.523195
126,19.523882
126.19998,19.524589
126.40002,19.525298
126.6,19.526064
126.79998,19.526811
127.00002,19.527559
127.2,19.528306
127.39998,19.529052
127.60002,19.529781
127.8,19.530567
127.99998,19.531333
128.20002,19.532141
128.4,19.532907
128.59998,19.533673
128.80002,19.534442
129,19.535247
129.19998,19.536073
129.40002,19.53694
129.6,19.537844
129.79998,19.538709
130.00002,19.539595
130.2,19.54048
130.39998,19.541384
130.60002,19.54231
130.8,19.543254
130.99998,19.54418
131.20002,19.545064
131.4,19.545929
131.59998,19.546734
131.80002,19.54766
132,19.548624
132.19998,19.549864
132.40002,19.551125
132.6,19.552444
132.79998,19.553784
133.00002,19.555162
133.2,19.556402
133.39998,19.557582
133.60002,19.558785
133.8,19.560143
133.99998,19.561621
134.20002,19.563039
134.4,19.564416
134.59998,19.565915
134.80002,19.567371
135,19.568868
135.19998,19.570462
135.40002,19.572079
135.6,19.573694
135.79998,19.575328
136.00002,19.577043
136.2,19.578658
136.39998,19.580193
136.60002,19.58177
136.8,19.583424
136.99998,19.58508
137.20002,19.586832
137.4,19.588644
137.59998,19.590458
137.80002,19.592289
138,19.59412
138.19998,19.59607
138.40002,19.598042
138.6,19.60009
138.79998,19.602138
139.00002,19.604149
139.2,19.606277
139.39998,19.608641
139.60002,19.611145
139.8,19.613568
139.99998,19.616149
140.20002,19.618634
140.4,19.621096
140.59998,19.623638
140.80002,19.626122
141,19.628604
141.19998,19.631264
141.40002,19.63434
141.6,19.637553
141.79998,19.640844
142.00002,19.644275
142.2,19.647803
142.39998,19.651094
142.60002,19.654365
142.8,19.658053
142.99998,19.661837
143.20002,19.665799
143.4,19.669862
143.59998,19.673823
143.80002,19.677785
144,19.681907
144.19998,19.685908
144.40002,19.689849
144.6,19.693912
144.79998,19.698267
145.00002,19.702587
145.2,19.706863
145.39998,19.711199
145.60002,19.715972
145.8,19.72088
145.99998,19.725807
146.20002,19.731369
146.4,19.737066
146.59998,19.744361
146.80002,19.751439
147,19.758283
147.19998,19.76544
147.40002,19.772442
147.6,19.77948
147.79998,19.786873
148.00002,19.794269
148.2,19.801761
148.39998,19.80941
148.60002,19.816901
148.8,19.824593
148.99998,19.832636
149.20002,19.840683
149.4,19.848845
149.59998,19.857321
149.80002,19.865763
150,19.874042
150.19998,19.882617
150.40002,19.892241
150.6,19.901724
150.79998,19.911482
151.00002,19.921659
151.2,19.931594
151.39998,19.94149
151.60002,19.951607
151.8,19.961621
151.99998,19.971793
152.20002,19.982205
152.4,19.992692
152.59998,20.003573
152.80002,20.014478
153,20.025951
153.19998,20.03764
153.40002,20.049511
153.6,20.061259
153.79998,20.074033
154.00002,20.086654
154.2,20.099407
154.39998,20.112713
154.60002,20.126023
154.8,20.139802
154.99998,20.154112
155.20002,20.168349
155.4,20.182028
155.59998,20.197029
155.80002,20.212271
156,20.227251
156.19998,20.242448
156.40002,20.257788
156.6,20.273616
156.79998,20.290449
157.00002,20.3078
157.2,20.324968
157.39998,20.342372
157.60002,20.359683
157.8,20.377501
157.99998,20.395318
158.20002,20.413832
158.4,20.43295
158.59998,20.451871
158.80002,20.47064
159,20.48958
159.19998,20.508184
159.40002,20.527327
159.6,20.546936
159.79998,20.566466
160.00002,20.587364
160.2,20.608786
160.39998,20.630879
160.60002,20.652702
160.8,20.674045
160.99998,20.695682
161.20002,20.718038
161.4,20.740266
161.59998,20.762454
161.80002,20.785124
162,20.80885
162.19998,20.833483
162.40002,20.858597
162.6,20.883169
162.79998,20.908333
163.00002,20.934629
163.2,20.961251
163.39998,20.987478
163.60002,21.011702
163.8,21.036272
163.99998,21.06788
164.20002,21.102367
164.4,21.136055
164.59998,21.170461
164.80002,21.20394
165,21.237311
165.19998,21.27282
165.40002,21.312449
165.6,21.356387
165.79998,21.401752
166.00002,21.452636
166.2,21.509763
166.39998,21.566462
166.60002,21.629646
166.8,21.695248
166.99998,21.764167
167.20002,21.837127
167.4,21.920568
167.59998,22.001845
167.80002,22.086452
168,22.174819
168.19998,22.275687
168.40002,22.371565
168.6,22.469569
168.79998,22.571022
169.00002,22.671094
169.2,22.771341
169.39998,22.875529
169.60002,22.979715
169.8,23.083309
169.99998,23.18826
170.20002,23.293209
170.4,23.398395
170.59998,23.50401
170.80002,23.606036
171,23.706486
171.19998,23.808705
171.40002,23.908517
171.6,24.006322
171.79998,24.103095
172.00002,24.197421
172.2,24.290137
172.39998,24.380537
172.60002,24.469438
172.8,24.560217
172.99998,24.642256
173.20002,24.720547
173.4,24.796777
173.59998,24.866728
173.80002,24.940836
174,25.008608
174.19998,25.069764
174.40002,25.126978
174.6,25.181738
174.79998,25.234712
175.00002,25.281063
175.2,25.317492
175.39998,25.350479
175.60002,25.377671
175.8,25.405191
175.99998,25.422527
176.20002,25.431941
176.4,25.438215
176.59998,25.440751
176.80002,25.442656
177,25.436612
177.19998,25.42693
177.40002,25.417247
177.6,25.398139
177.79998,25.372869
178.00002,25.353236
178.2,25.329733
178.39998,25.304091
178.60002,25.274251
178.8,25.241646
178.99998,25.210665
179.20002,25.177359
179.4,25.14172
179.59998,25.10481
179.80002,25.06658
180,25.028263
180.19998,24.989384
180.40002,24.951412
180.6,24.912033
180.79998,24.872132
181.00002,24.831877
181.2,24.791672
181.39998,24.752206
181.60002,24.712081
181.8,24.671454
181.99998,24.631006
182.20002,24.591277
182.4,24.551657
182.59998,24.513182
182.80002,24.474872
183,24.436792
183.19998,24.398102
183.40002,24.360358
183.6,24.322642
183.79998,24.285294
184.00002,24.247808
184.2,24.210311
184.39998,24.172768
184.60002,24.135684
184.8,24.098458
184.99998,24.060897
185.20002,24.023638
185.4,23.986749
185.59998,23.950432
185.80002,23.915302
186,23.880621
186.19998,23.846591
186.40002,23.811896
186.6,23.777059
186.79998,23.742243
187.00002,23.707644
187.2,23.67305
187.39998,23.638708
187.60002,23.605549
187.8,23.571941
187.99998,23.538094
188.20002,23.504527
188.4,23.471134
188.59998,23.437348
188.80002,23.404136
189,23.371829
189.19998,23.34029
189.40002,23.308517
189.6,23.276369
189.79998,23.244517
190.00002,23.212982
190.2,23.181328
190.39998,23.149833
190.60002,23.118496
190.8,23.087337
190.99998,23.057123
191.20002,23.028604
191.4,23.000026
191.59998,22.971803
191.80002,22.943817
192,22.915084
192.19998,22.886744
192.40002,22.858247
192.6,22.82987
192.79998,22.801591
193.00002,22.773273
193.2,22.745172
193.39998,22.716935
193.60002,22.688617
193.8,22.661011
193.99998,22.634193
194.20002,22.607216
194.4,22.580359
194.59998,22.554272
194.80002,22.528162
195,22.502114
195.19998,22.475989
195.40002,22.450156
195.6,22.424563
195.79998,22.399147
196.00002,22.373847
196.2,22.34859
196.39998,22.324003
196.60002,22.300319
196.8,22.276501
196.99998,22.252368
197.20002,22.228192
197.4,22.204238
197.59998,22.180343
197.80002,22.156601
198,22.133317
198.19998,22.110034
198.40002,22.086766
198.6,22.063346
198.79998,22.040359
199.00002,22.018195
199.2,21.99576
199.39998,21.973424
199.60002,21.951477
199.8,21.929359
199.99998,21.907379
200.20002,21.886102
200.4,21.864674
200.59998,21.842794
200.80002,21.821558
201,21.801214
201.19998,21.781106
201.40002,21.760973
201.6,21.74063
201.79998,21.720189
202.00002,21.699939
202.2,21.679833
202.39998,21.659925
202.60002,21.640404
202.8,21.620969
202.99998,21.60181
203.20002,21.582612
203.4,21.563446
203.59998,21.544328
203.80002,21.525446
204,21.506419
204.19998,21.48736
204.40002,21.468361
204.6,21.449591
204.79998,21.430848
205.00002,21.412067
205.2,21.393533
205.39998,21.37552
205.60002,21.357803
205.8,21.340215
205.99998,21.322931
206.20002,21.306533
206.4,21.290422
206.59998,21.2743
206.80002,21.257943
207,21.241655
207.19998,21.225633
207.40002,21.209493
207.6,21.193383
207.79998,21.177165
208.00002,21.161085
208.2,21.145094
208.39998,21.129112
208.60002,21.113033
208.8,21.097023
208.99998,21.081299
209.20002,21.065575
209.4,21.049605
209.59998,21.034747
209.80002,21.020736
210,21.006479
210.19998,20.991838
210.40002,20.977159
210.6,20.962686
210.79998,20.948499
211.00002,20.934332
211.2,20.920253
211.39998,20.906283
211.60002,20.892393
211.8,20.878492
211.99998,20.864444
212.20002,20.850357
212.4,20.836457
212.59998,20.82302
212.80002,20.809859
213,20.796855
213.19998,20.784018
213.40002,20.771251
213.6,20.758335
213.79998,20.745392
214.00002,20.732547
214.2,20.719888
214.39998,20.707378
214.60002,20.694888
214.8,20.682485
214.99998,20.670153
215.20002,20.657888
215.4,20.645576
215.59998,20.633323
215.80002,20.621177
216,20.609397
216.19998,20.597774
216.40002,20.586336
216.6,20.574931
216.79998,20.563525
217.00002,20.552088
217.2,20.540604
217.39998,20.529298
217.60002,20.518019
217.8,20.507047
217.99998,20.496607
218.20002,20.486331
218.4,20.476108
218.59998,20.465727
218.80002,20.455275
219,20.444737
219.19998,20.43418
219.40002,20.423728
219.6,20.41329
219.79998,20.402891
220.00002,20.392656
220.2,20.382651
220.39998,20.372705
220.60002,20.362706
220.8,20.35276
220.99998,20.343149
221.20002,20.333642
221.4,20.323933
221.59998,20.314382
221.80002,20.304935
222,20.295443
222.19998,20.286108
222.40002,20.276937
