Time (s),Heat Flow (mJ/s)
0,19.998334
1.00002,19.996797
1.99998,19.995224
3,19.993595
4.00002,19.991873
4.99998,19.990337
6,19.988837
7.00002,19.987652
7.99998,19.986671
9,19.985616
10.00002,19.98482
10.99998,19.98408
12,19.983376
13.00002,19.98295
13.99998,19.982413
15,19.981877
16.00002,19.981562
16.99998,19.981395
18,19.98121
19.00002,19.980988
19.99998,19.980784
21,19.980692
22.00002,19.980544
22.99998,19.980359
24,19.980099
25.00002,19.979988
25.99998,19.979809
27,19.979661
28.00002,19.979643
28.99998,19.979556
30,19.979575
31.00002,19.980111
31.99998,19.980796
33,19.981722
34.00002,19.982648
34.99998,19.983814
36,19.985128
37.00002,19.986591
37.99998,19.988405
39,19.990478
40.00002,19.992496
40.99998,19.994286
42,19.996285
43.00002,19.997803
43.99998,19.998821
45,19.999784
46.00002,20.00045
46.99998,20.000555
48,20.000703
49.00002,20.000833
49.99998,20.00074
51,20.000352
52.00002,19.999741
52.99998,19.998686
54,19.997501
55.00002,19.996254
55.99998,19.995014
57,19.993737
58.00002,19.992422
58.99998,19.991164
60,19.990226
60.19998,19.98996
60.40002,19.989701
60.6,19.989424
60.79998,19.989127
61.00002,19.988794
61.2,19.988424
61.39998,19.987998
61.60002,19.987591
61.8,19.987147
61.99998,19.986739
62.20002,19.986314
62.4,19.985869
62.59998,19.985443
62.80002,19.984999
63,19.984536
63.19998,19.984055
63.40002,19.983555
63.6,19.983043
63.79998,19.9825
64.00002,19.981982
64.2,19.981463
64.39998,19.980964
64.60002,19.980519
64.8,19.980081
64.99998,19.979686
65.20002,19.979285
65.4,19.978835
65.59998,19.978298
65.80002,19.977761
66,19.977274
66.19998,19.976823
66.40002,19.976373
66.6,19.975775
66.79998,19.974911
67.00002,19.973961
67.2,19.973197
67.39998,19.972241
67.60002,19.970846
67.8,19.969378
67.99998,19.96746
68.20002,19.964955
68.4,19.962006
68.59998,19.959033
68.80002,19.956361
69,19.953906
69.19998,19.95142
69.40002,19.948805
69.6,19.945739
69.79998,19.942137
70.00002,19.937152
70.2,19.930132
70.39998,19.924272
70.60002,19.918116
70.8,19.910337
70.99998,19.902497
71.20002,19.895976
71.4,19.889321
71.59998,19.882468
71.80002,19.875702
72,19.869293
72.19998,19.862009
72.40002,19.854504
72.6,19.844616
72.79998,19.835315
73.00002,19.823665
73.2,19.813477
73.39998,19.803349
73.60002,19.793216
73.8,19.782733
73.99998,19.772032
74.20002,19.762011
74.4,19.750584
74.59998,19.737826
74.80002,19.725183
75,19.712776
75.19998,19.700073
75.40002,19.687112
75.6,19.673878
75.79998,19.660751
76.00002,19.647772
76.2,19.634793
76.39998,19.621667
76.60002,19.608582
76.8,19.594216
76.99998,19.578723
77.20002,19.56297
77.4,19.547163
77.59998,19.531171
77.80002,19.515719
78,19.500874
78.19998,19.48418
78.40002,19.466617
78.6,19.449424
78.79998,19.432491
79.00002,19.415188
79.2,19.397629
79.39998,19.379901
79.60002,19.361822
79.8,19.343466
79.99998,19.324778
80.20002,19.306404
80.4,19.288013
80.59998,19.269603
80.80002,19.251009
81,19.232158
81.19998,19.213084
81.40002,19.193529
81.6,19.172772
81.79998,19.152386
82.00002,19.132241
82.2,19.111874
82.39998,19.090861
82.60002,19.070106
82.8,19.049149
82.99998,19.028285
83.20002,19.007403
83.4,18.986465
83.59998,18.965492
83.80002,18.944611
84,18.923564
84.19998,18.902332
84.40002,18.881175
84.6,18.859871
84.79998,18.838234
85.00002,18.816413
85.2,18.794408
85.39998,18.772327
85.60002,18.750193
85.8,18.727949
85.99998,18.70576
86.20002,18.683572
86.4,18.661422
86.59998,18.639106
86.80002,18.616732
87,18.59438
87.19998,18.571917
87.40002,18.549473
87.6,18.526993
87.79998,18.504384
88.00002,18.481809
88.2,18.459164
88.39998,18.436556
88.60002,18.413967
88.8,18.391379
88.99998,18.368788
89.20002,18.346201
89.4,18.323725
89.59998,18.301157
89.80002,18.27859
90,18.256093
90.19998,18.233656
90.40002,18.21122
90.6,18.188748
90.79998,18.166257
91.00002,18.143836
91.2,18.121457
91.39998,18.099005
91.60002,18.076572
91.8,18.054208
91.99998,18.031868
92.20002,18.009565
92.4,17.987227
92.59998,17.964901
92.80002,17.942618
93,17.920244
93.19998,17.897944
93.40002,17.875786
93.6,17.853561
93.79998,17.831337
94.00002,17.809254
94.2,17.787252
94.39998,17.765491
94.60002,17.743713
94.8,17.721945
94.99998,17.700204
95.20002,17.678649
95.4,17.657067
95.59998,17.635549
95.80002,17.613995
96,17.592563
96.19998,17.57136
96.40002,17.550251
96.6,17.529198
96.79998,17.508118
97.00002,17.486973
97.2,17.465847
97.39998,17.444916
97.60002,17.42405
97.8,17.403369
97.99998,17.382642
98.20002,17.361888
98.4,17.341143
98.59998,17.320501
98.80002,17.299859
99,17.279144
99.19998,17.258548
99.40002,17.238111
99.6,17.218273
99.79998,17.198613
100.00002,17.178879
100.2,17.159394
100.39998,17.140086
100.60002,17.120705
100.8,17.101387
100.99998,17.082154
101.20002,17.063088
101.4,17.044362
101.59998,17.025667
101.80002,17.006935
102,16.988154
102.19998,16.969349
102.40002,16.950692
102.6,16.932116
102.79998,16.913496
103.00002,16.894859
103.2,16.876394
103.39998,16.858589
103.60002,16.841141
103.8,16.823448
103.99998,16.805847
104.20002,16.788178
104.4,16.770449
104.59998,16.752702
104.80002,16.735052
105,16.717416
105.19998,16.699892
105.40002,16.682594
105.6,16.665329
105.79998,16.647935
106.00002,16.630619
106.2,16.614057
106.39998,16.598183
106.60002,16.582453
106.8,16.566687
106.99998,16.550666
107.20002,16.534493
107.4,16.518358
107.59998,16.502338
107.80002,16.486776
108,16.471237
108.19998,16.455675
108.40002,16.440022
108.6,16.424391
108.79998,16.408831
109.00002,16.393216
109.2,16.377604
109.39998,16.361952
109.60002,16.346211
109.8,16.330542
109.99998,16.314947
110.20002,16.299555
110.4,16.284129
110.59998,16.26872
110.80002,16.253477
111,16.238181
111.19998,16.222994
111.40002,16.208565
111.6,16.19436
111.79998,16.180116
112.00002,16.165761
112.2,16.152184
112.39998,16.138661
112.60002,16.12488
112.8,16.111267
112.99998,16.09769
113.20002,16.084076
113.4,16.070445
113.59998,16.056702
113.80002,16.043035
114,16.029329
114.19998,16.015957
114.40002,16.002604
114.6,15.98914
114.79998,15.975639
115.00002,15.963081
115.2,15.950448
115.39998,15.937668
115.60002,15.924981
115.8,15.912275
115.99998,15.899422
116.20002,15.886496
116.4,15.873902
116.59998,15.861437
116.80002,15.849121
117,15.836934
117.19998,15.82471
117.40002,15.812376
117.6,15.800116
117.79998,15.7878
118.00002,15.77543
118.2,15.763078
118.39998,15.751078
118.60002,15.739132
118.8,15.727261
118.99998,15.715391
119.20002,15.703501
119.4,15.691631
119.59998,15.679816
119.80002,15.668223
120,15.656796
120.19998,15.645758
120.40002,15.634774
120.6,15.623866
120.79998,15.612994
121.00002,15.602066
121.2,15.591306
121.39998,15.580675
121.60002,15.569895
121.8,15.559283
121.99998,15.548579
122.20002,15.538003
122.4,15.527576
122.59998,15.517131
122.80002,15.506629
123,15.49624
123.19998,15.485814
123.40002,15.475294
123.6,15.464979
123.79998,15.454776
124.00002,15.444552
124.2,15.434367
124.39998,15.424127
124.60002,15.413811
124.8,15.403663
124.99998,15.39359
125.20002,15.383385
125.4,15.373312
125.59998,15.363221
125.80002,15.353239
126,15.343369
126.19998,15.333279
126.40002,15.322983
126.6,15.313243
126.79998,15.303873
127.00002,15.294777
127.2,15.285924
127.39998,15.276961
127.60002,15.267736
127.8,15.258551
127.99998,15.249662
128.20002,15.240862
128.4,15.232158
128.59998,15.22338
128.80002,15.214544
129,15.20584
129.19998,15.197081
129.40002,15.188374
129.6,15.179726
129.79998,15.171171
130.00002,15.162538
130.2,15.153872
130.39998,15.145203
130.60002,15.136704
130.8,15.128149
130.99998,15.119554
131.20002,15.111148
131.4,15.102833
131.59998,15.094497
131.80002,15.086275
132,15.078013
132.19998,15.069958
132.40002,15.06205
132.6,15.054213
132.79998,15.046712
133.00002,15.039118
133.2,15.031779
133.39998,15.024518
133.60002,15.017147
133.8,15.009568
133.99998,15.002086
134.20002,14.994637
134.4,14.987137
134.59998,14.979693
134.80002,14.972262
135,14.964965
135.19998,14.957577
135.40002,14.950239
135.6,14.943035
135.79998,14.935868
136.00002,14.928826
136.2,14.921862
136.39998,14.914917
136.60002,14.908114
136.8,14.901372
136.99998,14.894649
137.20002,14.888087
137.4,14.881604
137.59998,14.875042
137.80002,14.868485
138,14.861947
138.19998,14.85544
138.40002,14.849142
138.6,14.842899
138.79998,14.836467
139.00002,14.829948
139.2,14.823373
139.39998,14.816683
139.60002,14.810183
139.8,14.80412
139.99998,14.79845
140.20002,14.792872
140.4,14.787147
140.59998,14.781342
140.80002,14.775525
141,14.769666
141.19998,14.76383
141.40002,14.758087
141.6,14.752209
141.79998,14.746356
142.00002,14.740576
142.2,14.734791
142.39998,14.729067
142.60002,14.72338
142.8,14.717724
142.99998,14.712092
143.20002,14.706461
143.4,14.700848
143.59998,14.695174
143.80002,14.689414
144,14.683611
144.19998,14.677888
144.40002,14.672312
144.6,14.666903
144.79998,14.661524
145.00002,14.656263
145.2,14.650872
145.39998,14.645457
145.60002,14.640269
145.8,14.6351
145.99998,14.62998
146.20002,14.624959
146.4,14.619919
146.59998,14.614898
146.80002,14.609926
147,14.605108
147.19998,14.600302
147.40002,14.595539
147.6,14.59074
147.79998,14.586051
148.00002,14.581412
148.2,14.576778
148.39998,14.572164
148.60002,14.567635
148.8,14.563112
148.99998,14.558645
149.20002,14.554117
149.4,14.549576
149.59998,14.545017
149.80002,14.540459
150,14.53593
150.19998,14.531445
150.40002,14.526979
150.6,14.522506
150.79998,14.518095
151.00002,14.513703
151.2,14.509285
151.39998,14.504893
151.60002,14.500464
151.8,14.496065
151.99998,14.491692
152.20002,14.487318
152.4,14.482901
152.59998,14.478546
152.80002,14.474228
153,14.469941
153.19998,14.465697
153.40002,14.461397
153.6,14.457054
153.79998,14.4527
154.00002,14.448364
154.2,14.444003
154.39998,14.439723
154.60002,14.435682
154.8,14.431616
154.99998,14.427409
155.20002,14.423203
155.4,14.419026
155.59998,14.415152
155.80002,14.411886
156,14.408336
156.19998,14.404812
156.40002,14.401343
156.6,14.397764
156.79998,14.393975
157.00002,14.38999
157.2,14.386036
157.39998,14.382254
157.60002,14.378472
157.8,14.374728
157.99998,14.371013
158.20002,14.367213
158.4,14.363487
158.59998,14.359809
158.80002,14.356285
159,14.352781
159.19998,14.34925
159.40002,14.345727
159.6,14.342131
159.79998,14.338571
160.00002,14.335022
160.2,14.331481
160.39998,14.327995
160.60002,14.324594
160.8,14.3212
160.99998,14.317862
161.20002,14.314516
161.4,14.311141
161.59998,14.30784
161.80002,14.30466
162,14.30158
162.19998,14.298482
162.40002,14.295321
162.6,14.292241
162.79998,14.289143
163.00002,14.286008
163.2,14.282865
163.39998,14.279767
163.60002,14.276706
163.8,14.273619
163.99998,14.270558
164.20002,14.267552
164.4,14.264502
164.59998,14.26146
164.80002,14.258436
165,14.255367
165.19998,14.252306
165.40002,14.249338
165.6,14.246417
165.79998,14.243559
166.00002,14.240609
166.2,14.237577
166.39998,14.234572
166.60002,14.231641
166.8,14.228646
166.99998,14.225752
167.20002,14.223024
167.4,14.220305
167.59998,14.217687
167.80002,14.215143
168,14.212738
168.19998,14.210305
168.40002,14.207834
168.6,14.205227
168.79998,14.202664
169.00002,14.200102
169.2,14.197613
169.39998,14.195117
169.60002,14.19261
169.8,14.190084
169.99998,14.187551
170.20002,14.185044
170.4,14.182555
170.59998,14.180133
170.80002,14.177755
171,14.175414
171.19998,14.173009
171.40002,14.170632
171.6,14.168199
171.79998,14.165721
172.00002,14.163306
172.2,14.160947
172.39998,14.158496
172.60002,14.156055
172.8,14.153751
172.99998,14.151595
173.20002,14.149449
173.4,14.147256
173.59998,14.145044
173.80002,14.142806
174,14.140613
174.19998,14.138457
174.40002,14.136292
174.6,14.134191
174.79998,14.132045
175.00002,14.129944
175.2,14.127844
175.39998,14.125761
175.60002,14.123671
175.8,14.121588
175.99998,14.119516
176.20002,14.117508
176.4,14.115573
176.59998,14.113629
176.80002,14.11175
177,14.109889
177.19998,14.107946
177.40002,14.105993
177.6,14.104068
177.79998,14.10228
178.00002,14.100475
178.2,14.098624
178.39998,14.096836
178.60002,14.095012
178.8,14.093235
178.99998,14.091503
179.20002,14.089734
179.4,14.088049
179.59998,14.086483
179.80002,14.084898
180,14.083287
180.19998,14.081666
180.40002,14.080063
180.6,14.078451
180.79998,14.076885
181.00002,14.075274
181.2,14.073689
181.39998,14.072179
181.60002,14.070696
181.8,14.069333
181.99998,14.067877
182.20002,14.066432
182.4,14.065013
182.59998,14.063705
182.80002,14.062425
183,14.061098
183.19998,14.05969
183.40002,14.058419
183.6,14.057129
183.79998,14.055886
184.00002,14.054725
184.2,14.053564
184.39998,14.052395
184.60002,14.051253
184.8,14.050083
184.99998,14.048959
185.20002,14.047854
185.4,14.046758
185.59998,14.045634
185.80002,14.044584
186,14.04347
186.19998,14.042383
186.40002,14.041306
186.6,14.040329
186.79998,14.039279
187.00002,14.038276
187.2,14.037299
187.39998,14.036323
187.60002,14.035338
187.8,14.034398
187.99998,14.033495
188.20002,14.032602
188.4,14.031699
188.59998,14.030778
188.80002,14.029866
189,14.029
189.19998,14.028116
189.40002,14.027223
189.6,14.026339
189.79998,14.02551
190.00002,14.02469
190.2,14.023898
190.39998,14.023087
190.60002,14.022268
190.8,14.021457
190.99998,14.020665
191.20002,14.019845
191.4,14.019053
191.59998,14.018279
191.80002,14.017524
192,14.016759
192.19998,14.016022
192.40002,14.015285
192.6,14.014521
192.79998,14.013802
193.00002,14.013102
193.2,14.012357
193.39998,14.011638
193.60002,14.010882
193.8,14.010118
193.99998,14.009381
194.20002,14.008663
194.4,14.00788
194.59998,14.007143
194.80002,14.006406
195,14.005624
195.19998,14.004887
195.40002,14.004131
195.6,14.003394
195.79998,14.002649
196.00002,14.00193
196.2,14.001212
196.39998,14.000493
196.60002,13.999729
196.8,13.998974
196.99998,13.998237
197.20002,13.997473
197.4,13.996699
197.59998,13.995944
197.80002,13.995162
198,13.994406
198.19998,13.993633
198.40002,13.99285
198.6,13.992058
198.79998,13.991284
199.00002,13.990502
199.2,13.98971
199.39998,13.988973
199.60002,13.988236
199.8,13.987454
199.99998,13.986699
200.20002,13.985907
200.4,13.985106
200.59998,13.984277
200.80002,13.983449
201,13.982638
201.19998,13.981764
201.40002,13.980972
201.6,13.980143
201.79998,13.979324
202.00002,13.978495
202.2,13.977667
202.39998,13.976811
202.60002,13.976019
202.8,13.975209
202.99998,13.974427
203.20002,13.973653
203.4,13.972898
203.59998,13.972152
203.80002,13.971416
204,13.970661
204.19998,13.969878
204.40002,13.969105
204.6,13.968313
204.79998,13.967513
205.00002,13.966739
205.2,13.966002
205.39998,13.965239
205.60002,13.96452
205.8,13.963839
205.99998,13.963112
206.20002,13.96243
206.4,13.961767
206.59998,13.96104
206.80002,13.960377
207,13.959714
207.19998,13.959024
207.40002,13.958398
207.6,13.957716
207.79998,13.957045
208.00002,13.9564
208.2,13.955755
208.39998,13.955084
208.60002,13.954476
208.8,13.953831
208.99998,13.953233
209.20002,13.952643
209.4,13.952072
209.59998,13.951474
209.80002,13.950885
210,13.950332
210.19998,13.949771
210.40002,13.949236
210.6,13.948702
210.79998,13.948104
211.00002,13.947533
211.2,13.94698
211.39998,13.9464
211.60002,13.945884
211.8,13.945423
211.99998,13.944991
212.20002,13.944604
212.4,13.944235
212.59998,13.943894
212.80002,13.943488
213,13.943119
213.19998,13.942705
213.40002,13.942336
213.6,13.941912
213.79998,13.941608
214.00002,13.941442
214.2,13.986699
214.39998,13.985907
214.60002,13.985106
214.8,13.984277
214.99998,13.983449
215.20002,13.982638
215.4,13.981764
215.59998,13.980972
215.80002,13.980143
216,13.979324
216.19998,13.978495
216.40002,13.977667
216.6,13.976811
216.79998,13.976019
217.00002,13.975209
217.2,13.974427
217.39998,13.973653
217.60002,13.972898
217.8,13.972152
217.99998,13.971416
218.20002,13.970661
218.4,13.969878
218.59998,13.969105
218.80002,13.968313
219,13.967513
219.19998,13.966739
219.40002,13.966002
219.6,13.965239
219.79998,13.96452
220.00002,13.963839
220.2,13.963112
220.39998,13.96243
220.60002,13.961767
220.8,13.96104
220.99998,13.960377
221.20002,13.959714
221.4,13.959024
221.59998,13.958398
221.80002,13.957716
222,13.957045
222.19998,13.9564
222.40002,13.955755
222.6,13.955084
222.79998,13.954476
223.00002,13.953831
223.2,13.953233
223.39998,13.952643
223.60002,13.952072
223.8,13.951474
223.99998,13.950885
224.20002,13.950332
224.4,13.949771
224.59998,13.949236
224.80002,13.948702
225,13.948104
225.19998,13.947533
225.40002,13.94698
225.6,13.9464
225.79998,13.945884
226.00002,13.945423
226.2,13.944991
226.39998,13.944604
226.60002,13.944235
226.8,13.943894
226.99998,13.943488
227.20002,13.943119
227.4,13.942705
227.59998,13.942336
227.80002,13.941912
228,13.941608
228.19998,13.941442
228.40002,13.941256
228.6,13.941026
228.79998,13.940767
229.00002,13.940546
229.2,13.940297
229.39998,13.940038
229.60002,13.939798
229.8,13.939549
229.99998,13.939364
230.20002,13.939197
230.4,13.938967
230.59998,13.938782
230.80002,13.938596
231,13.938374
231.19998,13.938144
231.40002,13.937922
231.6,13.937719
231.79998,13.937451
232.00002,13.937266
232.2,13.937063
232.39998,13.936832
232.60002,13.936592
232.8,13.936388
232.99998,13.936176
233.20002,13.935973
233.4,13.935824
233.59998,13.93563
233.80002,13.935464
234,13.935278
234.19998,13.935066
234.40002,13.934881
234.6,13.934696
234.79998,13.934484
235.00002,13.934262
235.2,13.934113
235.39998,13.933883
235.60002,13.933716
235.8,13.933485
235.99998,13.9333
236.20002,13.93317
236.4,13.933003
236.59998,13.932827
236.80002,13.932679
237,13.932522
237.19998,13.93241
237.40002,13.932261
237.6,13.932104
237.79998,13.931937
238.00002,13.931789
238.2,13.931632
238.39998,13.931538
238.60002,13.931445
238.8,13.93138
238.99998,13.931323
239.20002,13.931303
239.4,13.931256
239.59998,13.931273
239.80002,13.931345
240,13.931408
240.19998,13.93148
240.40002,13.931562
240.6,13.93167
240.79998,13.931742
241.00002,13.931824
241.2,13.93195
241.39998,13.932041
241.60002,13.932141
241.8,13.932249
241.99998,13.932349
242.20002,13.932439
242.4,13.932584
242.59998,13.932721
242.80002,13.932866
243,13.93304
243.19998,13.93324
243.40002,13.933477
243.6,13.933724
243.79998,13.933943
244.00002,13.934161
244.2,13.934371
244.39998,13.934572
244.60002,13.934727
244.8,13.934945
244.99998,13.935164
245.20002,13.935447
245.4,13.935776
245.59998,13.936105
245.80002,13.936443
246,13.936864
246.19998,13.937276
246.40002,13.937678
246.6,13.938227
246.79998,13.938823
247.00002,13.939464
247.2,13.940086
247.39998,13.940763
247.60002,13.941414
247.8,13.942073
247.99998,13.942732
248.20002,13.94331
248.4,13.943932
248.59998,13.944473
248.80002,13.945058
249,13.94557
249.19998,13.946147
249.40002,13.946769
249.6,13.947392
249.79998,13.94795
250.00002,13.948554
250.2,13.949158
250.39998,13.94978
250.60002,13.950375
250.8,13.950997
250.99998,13.951611
251.20002,13.95227
251.4,13.952947
251.59998,13.953624
251.80002,13.954275
252,13.954988
252.19998,13.955657
252.40002,13.956371
252.6,13.957084
252.79998,13.957835
253.00002,13.95854
253.2,13.959272
253.39998,13.959967
253.60002,13.960673
253.8,13.961441
253.99998,13.96221
254.20002,13.963052
254.4,13.963849
254.59998,13.964618
254.80002,13.965313
255,13.965926
255.19998,13.966603
255.40002,13.967261
255.6,13.96793
255.79998,13.968735
256.00002,13.969595
256.2,13.970465
256.39998,13.971399
256.60002,13.972149
256.8,13.97256
256.99998,13.972925
257.20002,13.973344
257.4,13.973847
257.59998,13.974469
257.80002,13.975108
258,13.975813
258.19998,13.976618
258.40002,13.977478
258.6,13.978293
258.79998,13.979135
259.00002,13.979903
259.2,13.9807
259.39998,13.981504
259.60002,13.982309
259.8,13.983032
259.99998,13.983782
260.20002,13.984513
260.4,13.985218
260.59998,13.985967
260.80002,13.986698
261,13.987385
261.19998,13.988079
261.40002,13.988755
261.6,13.989387
261.79998,13.990062
262.00002,13.990775
262.2,13.991498
262.39998,13.992284
262.60002,13.99307
262.8,13.993874
262.99998,13.994652
263.20002,13.995475
263.4,13.996297
263.59998,13.997076
263.80002,13.997861
264,13.998647
264.19998,13.999407
264.40002,14.000229
264.6,14.001033
264.79998,14.00183
265.00002,14.002725
265.2,14.003713
265.39998,14.004638
265.60002,14.005607
265.8,14.006576
265.99998,14.007519
266.20002,14.008525
266.4,14.009512
266.59998,14.010455
266.80002,14.011406
267,14.012393
267.19998,14.013318
267.40002,14.01425
267.6,14.015163
267.79998,14.01607
