Time (s),Heat Flow (mJ/s)
0,19.963087
0.19998,19.925538
0.40002,19.88787
0.6,19.850639
0.79998,19.81305
1.00002,19.775322
1.2,19.737674
1.39998,19.701615
1.60002,19.667702
1.8,19.633392
1.99998,19.598525
2.20002,19.5634
2.4,19.528294
2.59998,19.493845
2.80002,19.459812
3,19.4257
3.19998,19.391469
3.40002,19.357556
3.6,19.324199
3.79998,19.291498
4.00002,19.259055
4.2,19.226413
4.39998,19.194725
4.60002,19.162818
4.8,19.131528
4.99998,19.099939
5.20002,19.06841
5.4,19.03696
5.59998,19.006067
5.80002,18.975312
6,18.944856
6.19998,18.914261
6.40002,18.883526
6.6,18.853447
6.79998,18.823726
7.00002,18.794422
7.2,18.765575
7.39998,18.738119
7.60002,18.710225
7.8,18.681914
7.99998,18.653961
8.20002,18.625889
8.4,18.598115
8.59998,18.570718
8.80002,18.54348
9,18.516242
9.19998,18.488846
9.40002,18.461826
9.6,18.435224
9.79998,18.40898
10.00002,18.382656
10.2,18.356868
10.39998,18.33114
10.60002,18.305651
10.8,18.280697
10.99998,18.255526
11.20002,18.23103
11.4,18.207606
11.59998,18.184123
11.80002,18.159925
12,18.135727
12.19998,18.111529
12.40002,18.087231
12.6,18.063192
12.79998,18.039272
13.00002,18.015888
13.2,17.994074
13.39998,17.972061
13.60002,17.949572
13.8,17.926903
13.99998,17.904036
14.20002,17.881348
14.4,17.859137
14.59998,17.837561
14.80002,17.816204
15,17.794648
15.19998,17.772854
15.40002,17.751357
15.6,17.730258
15.79998,17.709219
16.00002,17.688239
16.2,17.667319
16.39998,17.646995
16.60002,17.626453
16.8,17.607003
16.99998,17.588328
17.20002,17.569096
17.4,17.549726
17.59998,17.530296
17.80002,17.511024
18,17.491932
18.19998,17.473098
18.40002,17.454463
18.6,17.435807
18.79998,17.417053
19.00002,17.398398
19.2,17.380557
19.39998,17.363213
19.60002,17.345909
19.8,17.328406
19.99998,17.310764
20.20002,17.293181
20.4,17.275559
20.59998,17.258175
20.80002,17.240871
21,17.223805
21.19998,17.207196
21.40002,17.190647
21.6,17.174217
21.79998,17.157747
22.00002,17.141237
22.2,17.124648
22.39998,17.108159
22.60002,17.091947
22.8,17.075934
22.99998,17.06014
23.20002,17.044385
23.4,17.028611
23.59998,17.013213
23.80002,16.997816
24,16.982459
24.19998,16.96732
24.40002,16.952261
24.6,16.937222
24.79998,16.922262
25.00002,16.907381
25.2,16.89256
25.39998,16.877938
25.60002,16.863375
25.8,16.848952
25.99998,16.835244
26.20002,16.821694
26.4,16.807887
26.59998,16.794019
26.80002,16.780351
27,16.766662
27.19998,16.753629
27.40002,16.740815
27.6,16.727862
27.79998,16.714948
28.00002,16.702074
28.2,16.689101
28.39998,16.676426
28.60002,16.664207
28.8,16.651989
28.99998,16.639751
29.20002,16.627592
29.4,16.615294
29.59998,16.603056
29.80002,16.590818
30,16.578461
30.19998,16.566183
30.40002,16.554124
30.6,16.542064
30.79998,16.529985
31.00002,16.517985
31.2,16.506085
31.39998,16.494363
31.60002,16.482622
31.8,16.471278
31.99998,16.46045
32.20002,16.44992
32.4,16.439172
32.59998,16.428384
32.80002,16.417676
33,16.407226
33.19998,16.396915
33.40002,16.386644
33.6,16.376372
33.79998,16.366121
34.00002,16.35581
34.2,16.345558
34.39998,16.335347
34.60002,16.325274
34.8,16.315042
34.99998,16.30485
35.20002,16.294778
35.4,16.284646
35.59998,16.274613
35.80002,16.264798
36,16.255063
36.19998,16.245329
36.40002,16.235693
36.6,16.226157
36.79998,16.216621
37.00002,16.207045
37.2,16.197866
37.39998,16.189065
37.60002,16.180582
37.8,16.172277
37.99998,16.164132
38.20002,16.155867
38.4,16.147562
38.59998,16.139099
38.80002,16.130834
39,16.12253
39.19998,16.114325
39.40002,16.106119
39.6,16.097914
39.79998,16.089729
40.00002,16.081544
40.2,16.073398
40.39998,16.065352
40.60002,16.057246
40.8,16.049081
40.99998,16.040935
41.20002,16.03281
41.4,16.024744
41.59998,16.016856
41.80002,16.009029
42,16.0014
42.19998,15.99393
42.40002,15.986519
42.6,15.979149
42.79998,15.971758
43.00002,15.964487
43.2,15.957414
43.39998,15.950321
43.60002,15.943229
43.8,15.936216
43.99998,15.929242
44.20002,15.922309
44.4,15.915335
44.59998,15.908302
44.80002,15.901329
45,15.894375
45.19998,15.887462
45.40002,15.880588
45.6,15.873773
45.79998,15.866959
46.00002,15.860065
46.2,15.853191
46.39998,15.846555
46.60002,15.840178
46.8,15.834257
46.99998,15.828397
47.20002,15.822456
47.4,15.816397
47.59998,15.810417
47.80002,15.804457
48,15.798497
48.19998,15.792477
48.40002,15.786556
48.6,15.780775
48.79998,15.775034
49.00002,15.769312
49.2,15.76357
49.39998,15.757908
49.60002,15.752325
49.8,15.746723
49.99998,15.7411
50.20002,15.735498
50.4,15.730054
50.59998,15.72465
50.80002,15.719306
51,15.713962
51.19998,15.708697
51.40002,15.703492
51.6,15.698307
51.79998,15.693121
52.00002,15.687956
52.2,15.68281
52.39998,15.677645
52.60002,15.672519
52.8,15.667513
52.99998,15.662506
53.20002,15.65744
53.4,15.652414
53.59998,15.647387
53.80002,15.642321
54,15.637175
54.19998,15.63207
54.40002,15.627023
54.6,15.621937
54.79998,15.616831
55.00002,15.611805
55.2,15.606918
55.39998,15.602408
55.60002,15.598097
55.8,15.593984
55.99998,15.589713
56.20002,15.585402
56.4,15.581031
56.59998,15.57664
56.80002,15.572389
57,15.568157
57.19998,15.563945
57.40002,15.559733
57.6,15.555541
57.79998,15.551449
58.00002,15.547336
58.2,15.543144
58.39998,15.539071
58.60002,15.535058
58.8,15.530946
58.99998,15.526813
59.20002,15.522761
59.4,15.518827
59.59998,15.514853
59.80002,15.511019
60,15.507224
60.19998,15.501681
60.40002,15.498125
60.6,15.494629
60.79998,15.491112
61.00002,15.487576
61.2,15.48396
61.39998,15.480324
61.60002,15.476649
61.8,15.472954
61.99998,15.469278
62.20002,15.465643
62.4,15.462027
62.59998,15.458411
62.80002,15.454795
63,15.451199
63.19998,15.447603
63.40002,15.443987
63.6,15.440411
63.79998,15.436835
64.00002,15.433239
64.2,15.429604
64.39998,15.425948
64.60002,15.422292
64.8,15.418617
64.99998,15.414942
65.20002,15.411246
65.4,15.407571
65.59998,15.403955
65.80002,15.400319
66,15.396715
66.19998,15.393158
66.40002,15.389573
66.6,15.386088
66.79998,15.382563
67.00002,15.378989
67.2,15.375365
67.39998,15.371561
67.60002,15.36765
67.8,15.36343
67.99998,15.358892
68.20002,15.354314
68.4,15.350006
68.59998,15.345409
68.80002,15.340048
69,15.334576
69.19998,15.329105
69.40002,15.323526
69.6,15.318293
69.79998,15.312564
70.00002,15.305218
70.2,15.298058
70.39998,15.291328
70.60002,15.284586
70.8,15.278054
70.99998,15.27167
71.20002,15.265079
71.4,15.258389
71.59998,15.251092
71.80002,15.243469
72,15.235516
72.19998,15.226542
72.40002,15.218073
72.6,15.209835
72.79998,15.200425
73.00002,15.190837
73.2,15.18078
73.39998,15.170854
73.60002,15.160889
73.8,15.151468
73.99998,15.141741
74.20002,15.132214
74.4,15.122793
74.59998,15.113425
74.80002,15.103799
75,15.094054
75.19998,15.084137
75.40002,15.074372
75.6,15.064429
75.79998,15.054586
76.00002,15.044902
76.2,15.035284
76.39998,15.025421
76.60002,15.0153
76.8,15.00512
76.99998,14.995
77.20002,14.984688
77.4,14.974052
77.59998,14.963377
77.80002,14.952741
78,14.942067
78.19998,14.931134
78.40002,14.920142
78.6,14.909071
78.79998,14.898079
79.00002,14.887113
79.2,14.876122
79.39998,14.865191
79.60002,14.854141
79.8,14.843091
79.99998,14.832022
80.20002,14.820992
80.4,14.810062
80.59998,14.799252
80.80002,14.788427
81,14.777657
81.19998,14.766767
81.40002,14.755819
81.6,14.744851
81.79998,14.733823
82.00002,14.722935
82.2,14.712127
82.39998,14.701338
82.60002,14.69057
82.8,14.679921
82.99998,14.669356
83.20002,14.658847
83.4,14.648278
83.59998,14.63757
83.80002,14.626824
84,14.616216
84.19998,14.605787
84.40002,14.595299
84.6,14.58493
84.79998,14.57474
85.00002,14.564749
85.2,14.554762
85.39998,14.544771
85.60002,14.5348
85.8,14.52479
85.99998,14.514701
86.20002,14.504731
86.4,14.4949
86.59998,14.485208
86.80002,14.475596
87,14.466067
87.19998,14.456475
87.40002,14.446943
87.6,14.437511
87.79998,14.428058
88.00002,14.418547
88.2,14.408976
88.39998,14.399389
88.60002,14.389997
88.8,14.380923
88.99998,14.372523
89.20002,14.364303
89.4,14.355944
89.59998,14.347605
89.80002,14.339169
90,14.330711
90.19998,14.322175
90.40002,14.313697
90.6,14.305399
90.79998,14.297123
91.00002,14.289043
91.2,14.281062
91.39998,14.273023
91.60002,14.264983
91.8,14.257025
91.99998,14.249819
92.20002,14.242534
92.4,14.235289
92.59998,14.228559
92.80002,14.221673
93,14.214667
93.19998,14.208077
93.40002,14.201707
93.6,14.195633
93.79998,14.189579
94.00002,14.183466
94.2,14.177374
94.39998,14.17132
94.60002,14.165227
94.8,14.159174
94.99998,14.153083
95.20002,14.14703
95.4,14.141076
95.59998,14.135263
95.80002,14.129528
96,14.123852
96.19998,14.119031
96.40002,14.115894
96.6,14.112064
96.79998,14.107997
97.00002,14.102917
97.2,14.097936
97.39998,14.093293
97.60002,14.088928
97.8,14.084602
97.99998,14.080217
98.20002,14.075972
98.4,14.071844
98.59998,14.06754
98.80002,14.063056
99,14.058711
99.19998,14.054624
99.40002,14.050854
99.6,14.047085
99.79998,14.043792
100.00002,14.040954
100.2,14.038573
100.39998,14.035895
100.60002,14.033177
100.8,14.030281
100.99998,14.027543
101.20002,14.024746
101.4,14.022266
101.59998,14.019667
101.80002,14.017188
102,14.014866
102.19998,14.012585
102.40002,14.010284
102.6,14.007964
102.79998,14.005682
103.00002,14.00356
103.2,14.001437
103.39998,13.999493
103.60002,13.998164
103.8,13.996954
103.99998,13.995506
104.20002,13.994335
104.4,13.993046
104.59998,13.991736
104.80002,13.990328
105,13.98894
105.19998,13.987749
105.40002,13.986659
105.6,13.985548
105.79998,13.984536
106.00002,13.983643
106.2,13.982691
106.39998,13.981679
106.60002,13.980668
106.8,13.979735
106.99998,13.978823
107.20002,13.97791
107.4,13.977018
107.59998,13.976165
107.80002,13.975391
108,13.974935
108.19998,13.974518
108.40002,13.974121
108.6,13.973724
108.79998,13.973347
109.00002,13.97303
109.2,13.97291
109.39998,13.97291
109.60002,13.972929
109.8,13.973088
109.99998,13.973206
110.20002,13.973265
110.4,13.973384
110.59998,13.973601
110.80002,13.973799
111,13.973997
111.19998,13.974294
111.40002,13.974551
111.6,13.974888
111.79998,13.975224
112.00002,13.975462
112.2,13.975739
112.39998,13.976035
112.60002,13.976352
112.8,13.976808
112.99998,13.977322
113.20002,13.977778
113.4,13.978293
113.59998,13.978748
113.80002,13.979382
114,13.980095
114.19998,13.980828
114.40002,13.98164
114.6,13.982571
114.79998,13.983403
115.00002,13.984334
115.2,13.985245
115.39998,13.986235
115.60002,13.987225
115.8,13.988235
115.99998,13.989246
116.20002,13.990315
116.4,13.991404
116.59998,13.992553
116.80002,13.993761
117,13.994989
117.19998,13.996079
117.40002,13.997168
117.6,13.998297
117.79998,13.999545
118.00002,14.000753
118.2,14.00202
118.39998,14.003268
118.60002,14.004535
118.8,14.005802
118.99998,14.00707
119.20002,14.008377
119.4,14.009644
119.59998,14.010912
119.80002,14.012199
120,14.013525
120.19998,14.014832
120.40002,14.016238
120.6,14.017683
120.79998,14.01911
121.00002,14.020555
121.2,14.02198
121.39998,14.023426
121.60002,14.024871
121.8,14.026277
121.99998,14.027663
122.20002,14.029088
122.4,14.030513
122.59998,14.032019
122.80002,14.033503
123,14.035027
123.19998,14.036592
123.40002,14.038136
123.6,14.039699
123.79998,14.041284
124.00002,14.042907
124.2,14.044569
124.39998,14.046213
124.60002,14.047876
124.8,14.049558
124.99998,14.0513
125.20002,14.053003
125.4,14.054705
125.59998,14.056427
125.80002,14.058109
126,14.059812
126.19998,14.061554
126.40002,14.063315
126.6,14.065037
126.79998,14.066779
127.00002,14.06854
127.2,14.070262
127.39998,14.071984
127.60002,14.073686
127.8,14.075387
127.99998,14.07711
128.20002,14.078811
128.4,14.080552
128.59998,14.082275
128.80002,14.083996
129,14.085737
129.19998,14.087519
129.40002,14.089339
129.6,14.091159
129.79998,14.09298
130.00002,14.09482
130.2,14.09666
130.39998,14.098481
130.60002,14.100301
130.8,14.102121
130.99998,14.104001
131.20002,14.105821
131.4,14.107661
131.59998,14.109442
131.80002,14.111222
132,14.113082
132.19998,14.11506
132.40002,14.117078
132.6,14.119056
132.79998,14.120896
133.00002,14.122815
133.2,14.124753
133.39998,14.126791
133.60002,14.128829
133.8,14.130826
133.99998,14.132686
134.20002,14.134505
134.4,14.136285
134.59998,14.137888
134.80002,14.13937
135,14.140635
135.19998,14.141921
135.40002,14.143601
135.6,14.145381
135.79998,14.147161
136.00002,14.14898
136.2,14.150819
136.39998,14.15258
136.60002,14.1543
136.8,14.156118
136.99998,14.157958
137.20002,14.159698
137.4,14.161417
137.59998,14.163119
137.80002,14.164819
138,14.166578
138.19998,14.168398
138.40002,14.170236
138.6,14.172015
138.79998,14.173815
139.00002,14.175653
139.2,14.177452
139.39998,14.179291
139.60002,14.181109
139.8,14.182908
139.99998,14.184747
140.20002,14.186565
140.4,14.188403
140.59998,14.190223
140.80002,14.192061
141,14.193918
141.19998,14.195758
141.40002,14.197576
141.6,14.199413
141.79998,14.201213
142.00002,14.203031
142.2,14.204849
142.39998,14.206688
142.60002,14.208525
142.8,14.210363
142.99998,14.212222
143.20002,14.214059
143.4,14.215877
143.59998,14.217654
143.80002,14.219434
144,14.221251
144.19998,14.223071
144.40002,14.224848
144.6,14.226666
144.79998,14.228485
145.00002,14.230322
145.2,14.232119
145.39998,14.233918
145.60002,14.235716
145.8,14.237533
145.99998,14.239332
146.20002,14.241109
146.4,14.242887
146.59998,14.244666
146.80002,14.246443
147,14.248161
147.19998,14.249901
147.40002,14.251619
147.6,14.253356
147.79998,14.255056
148.00002,14.256794
148.2,14.258531
148.39998,14.260289
148.60002,14.262068
148.8,14.263845
148.99998,14.265602
149.20002,14.267341
149.4,14.269059
149.59998,14.270776
149.80002,14.272495
150,14.274173
150.19998,14.275893
150.40002,14.277571
150.6,14.279248
150.79998,14.280908
151.00002,14.282566
151.2,14.284264
151.39998,14.285963
151.60002,14.287641
151.8,14.289318
151.99998,14.291037
152.20002,14.292754
152.4,14.294471
152.59998,14.29619
152.80002,14.297868
153,14.299565
153.19998,14.301205
153.40002,14.302842
153.6,14.304441
153.79998,14.306041
154.00002,14.307639
154.2,14.309237
154.39998,14.310837
154.60002,14.312435
154.8,14.314033
154.99998,14.315633
155.20002,14.317231
155.4,14.318868
155.59998,14.320468
155.80002,14.322106
156,14.323763
156.19998,14.325422
156.40002,14.32696
156.6,14.328518
156.79998,14.330079
157.00002,14.331617
157.2,14.333175
157.39998,14.334715
157.60002,14.336214
157.8,14.337752
157.99998,14.339273
158.20002,14.340791
158.4,14.342388
158.59998,14.343988
158.80002,14.345605
159,14.347242
159.19998,14.348901
159.40002,14.350577
159.6,14.352174
159.79998,14.353833
160.00002,14.355489
160.2,14.357106
160.39998,14.358706
160.60002,14.360303
160.8,14.361821
160.99998,14.363341
161.20002,14.364799
161.4,14.366317
161.59998,14.367857
161.80002,14.369335
162,14.370833
162.19998,14.372334
162.40002,14.373891
162.6,14.375389
162.79998,14.37683
163.00002,14.378268
163.2,14.379706
163.39998,14.381128
163.60002,14.382546
163.8,14.383925
163.99998,14.385287
164.20002,14.386666
164.4,14.388025
164.59998,14.389387
164.80002,14.390766
165,14.392125
165.19998,14.393506
165.40002,14.394885
165.6,14.396224
165.79998,14.397546
166.00002,14.398866
166.2,14.400185
166.39998,14.401487
166.60002,14.402767
166.8,14.404047
166.99998,14.405329
167.20002,14.406629
167.4,14.407928
167.59998,14.40921
167.80002,14.410549
168,14.411849
168.19998,14.413111
168.40002,14.414391
168.6,14.415631
168.79998,14.416893
169.00002,14.418113
169.2,14.419353
169.39998,14.420576
169.60002,14.421796
169.8,14.422977
169.99998,14.4242
170.20002,14.42538
170.4,14.42658
170.59998,14.427783
170.80002,14.428964
171,14.430144
171.19998,14.431308
171.40002,14.432508
171.6,14.433668
171.79998,14.434851
172.00002,14.436012
172.2,14.437153
172.39998,14.438277
172.60002,14.439417
172.8,14.440617
172.99998,14.4418
173.20002,14.443
173.4,14.4442
173.59998,14.445403
173.80002,14.446642
174,14.447842
174.19998,14.449045
174.40002,14.450264
174.6,14.451484
174.79998,14.452706
175.00002,14.453945
175.2,14.455204
175.39998,14.456486
175.60002,14.457745
175.8,14.459024
175.99998,14.460325
176.20002,14.461663
176.4,14.462941
176.59998,14.464121
176.80002,14.465304
177,14.466484
177.19998,14.467785
177.40002,14.469103
177.6,14.470401
177.79998,14.471544
178.00002,14.472704
178.2,14.473824
178.39998,14.474747
178.60002,14.475732
178.8,14.476556
178.99998,14.47734
179.20002,14.478246
179.4,14.47907
179.59998,14.479936
179.80002,14.480839
180,14.481722
180.19998,14.482667
180.40002,14.483629
180.6,14.484631
180.79998,14.485573
181.00002,14.486479
181.2,14.487401
181.39998,14.488386
181.60002,14.489368
181.8,14.490389
181.99998,14.491334
182.20002,14.492316
182.4,14.493297
182.59998,14.494321
182.80002,14.495362
183,14.496423
183.19998,14.497427
183.40002,14.498428
183.6,14.49943
183.79998,14.500411
184.00002,14.501455
184.2,14.502476
184.39998,14.5035
184.60002,14.504521
184.8,14.505522
184.99998,14.506526
185.20002,14.507488
185.4,14.508449
185.59998,14.509434
185.80002,14.510435
186,14.511416
186.19998,14.512401
186.40002,14.513362
186.6,14.514284
186.79998,14.515209
187.00002,14.516111
187.2,14.517033
187.39998,14.517958
187.60002,14.518841
187.8,14.519743
187.99998,14.520668
188.20002,14.52155
188.4,14.522393
188.59998,14.523275
188.80002,14.524121
189,14.524964
189.19998,14.52577
189.40002,14.526593
189.6,14.527397
189.79998,14.528223
190.00002,14.529046
190.2,14.529888
190.39998,14.530691
190.60002,14.531518
190.8,14.532301
190.99998,14.533147
191.20002,14.533989
191.4,14.534832
191.59998,14.535658
191.80002,14.536501
192,14.537363
192.19998,14.538189
192.40002,14.539031
192.6,14.539874
192.79998,14.54072
193.00002,14.541562
193.2,14.542385
193.39998,14.543227
193.60002,14.544073
193.8,14.544955
193.99998,14.5458
194.20002,14.546662
194.4,14.547485
194.59998,14.548331
194.80002,14.549173
195,14.550035
195.19998,14.55092
195.40002,14.551802
195.6,14.552703
195.79998,14.553569
196.00002,14.554431
196.2,14.555293
196.39998,14.556118
196.60002,14.556941
196.8,14.557763
196.99998,14.558589
197.20002,14.559411
197.4,14.560253
197.59998,14.561059
197.80002,14.561862
198,14.562665
198.19998,14.56349
198.40002,14.564293
198.6,14.565115
198.79998,14.565881
199.00002,14.566684
199.2,14.567467
199.39998,14.568213
199.60002,14.568937
199.8,14.56968
199.99998,14.570404
200.20002,14.57113
200.4,14.571854
200.59998,14.572577
200.80002,14.573304
201,14.574008
201.19998,14.574695
201.40002,14.575438
201.6,14.576181
201.79998,14.576924
202.00002,14.577691
202.2,14.578454
202.39998,14.579197
202.60002,14.579963
202.8,14.580726
202.99998,14.581528
203.20002,14.582314
203.4,14.583057
203.59998,14.583819
203.80002,14.584605
204,14.585427
204.19998,14.586213
204.40002,14.586995
204.6,14.587798
204.79998,14.588583
205.00002,14.589346
205.2,14.590109
205.39998,14.590855
205.60002,14.591578
205.8,14.592321
205.99998,14.593087
206.20002,14.593849
206.4,14.594592
206.59998,14.595299
206.80002,14.596002
207,14.596725
207.19998,14.597452
207.40002,14.598155
207.6,14.598819
207.79998,14.599526
208.00002,14.600209
208.2,14.600912
208.39998,14.60158
208.60002,14.602263
208.8,14.602927
208.99998,14.603594
209.20002,14.604258
209.4,14.604921
209.59998,14.605608
209.80002,14.606292
210,14.606975
210.19998,14.607662
210.40002,14.608306
210.6,14.608969
210.79998,14.609617
211.00002,14.610261
211.2,14.610924
211.39998,14.611591
211.60002,14.612235
211.8,14.612879
211.99998,14.613546
212.20002,14.614229
212.4,14.614873
212.59998,14.615556
212.80002,14.616282
213,14.617005
213.19998,14.617712
213.40002,14.618434
213.6,14.619176
213.79998,14.619903
214.00002,14.620605
214.2,14.621328
214.39998,14.622015
214.60002,14.622698
214.8,14.623381
214.99998,14.624107
215.20002,14.624849
215.4,14.625591
215.59998,14.626357
215.80002,14.627119
216,14.627901
216.19998,14.628706
216.40002,14.629507
216.6,14.630328
216.79998,14.631153
217.00002,14.631954
217.2,14.632755
217.39998,14.63356
217.60002,14.634322
217.8,14.635064
217.99998,14.63579
218.20002,14.636552
218.4,14.637274
218.59998,14.638039
218.80002,14.638762
219,14.639523
219.19998,14.640308
219.40002,14.64109
219.6,14.641891
219.79998,14.642656
220.00002,14.643398
220.2,14.64412
220.39998,14.644826
220.60002,14.645548
220.8,14.64629
220.99998,14.647036
221.20002,14.647778
221.4,14.6485
221.59998,14.649245
221.80002,14.650027
222,14.650768
222.19998,14.651534
222.40002,14.652334
