Time (s),Heat Flow (J/s)
0,19.99444
1.00002,19.988937
1.99998,19.983434
3,19.978484
4.00002,19.973438
4.99998,19.968544
6,19.96386
7.00002,19.95929
7.99998,19.954739
9,19.950112
10.00002,19.945238
10.99998,19.940287
12,19.935241
13.00002,19.93031
13.99998,19.925321
15,19.920466
16.00002,19.915724
16.99998,19.911116
18,19.906566
19.00002,19.902224
19.99998,19.897902
21,19.893713
22.00002,19.889619
22.99998,19.885449
24,19.88126
25.00002,19.877014
25.99998,19.872882
27,19.868674
28.00002,19.864352
28.99998,19.860201
30,19.856031
31.00002,19.851829
31.99998,19.847793
33,19.843832
34.00002,19.839719
34.99998,19.835492
36,19.83117
37.00002,19.826752
37.99998,19.82243
39,19.818291
40.00002,19.814102
40.99998,19.809989
42,19.805915
43.00002,19.801935
43.99998,19.79807
45,19.794509
46.00002,19.791036
46.99998,19.787609
48,19.783934
49.00002,19.78024
49.99998,19.77647
51,19.773023
52.00002,19.768892
52.99998,19.766359
54,19.763293
55.00002,19.760228
55.99998,19.757353
57,19.75463
58.00002,19.751305
58.99998,19.747973
60,19.742634
61.00002,19.738254
61.99998,19.733627
63,19.728684
64.00002,19.723448
64.99998,19.718257
66,19.712526
67.00002,19.70464
67.99998,19.69169
69,19.675409
70.00002,19.654619
70.99998,19.627784
72,19.597907
73.00002,19.566777
73.99998,19.529948
75,19.490858
76.00002,19.45065
76.99998,19.408905
78,19.363606
79.00002,19.316085
79.99998,19.267591
81,19.218978
82.00002,19.168516
82.99998,19.1163
84,19.064366
85.00002,19.012485
85.99998,18.960849
87,18.909467
88.00002,18.858591
88.99998,18.807569
90,18.757745
91.00002,18.708636
91.99998,18.660849
93,18.613879
94.00002,18.568093
94.99998,18.522811
96,18.479928
97.00002,18.438756
97.99998,18.401679
99,18.365594
100.00002,18.329931
100.99998,18.294974
102,18.261142
103.00002,18.232403
103.99998,18.203043
105,18.175073
106.00002,18.147656
106.99998,18.12199
108,18.096688
109.00002,18.072241
109.99998,18.050477
111,18.029817
112.00002,18.009804
112.99998,17.989812
114,17.970753
115.00002,17.951962
115.99998,17.935299
117,17.918619
118.00002,17.902568
118.99998,17.886157
120,17.871704
121.00002,17.85841
121.99998,17.844661
123,17.831199
124.00002,17.818346
124.99998,17.807013
126,17.795377
127.00002,17.784065
127.99998,17.772943
129,17.762108
130.00002,17.751292
130.99998,17.740611
132,17.732606
133.00002,17.723426
133.99998,17.713961
135,17.704992
136.00002,17.69532
136.99998,17.686579
138,17.681103
139.00002,17.67337
139.99998,17.666111
141,17.659176
142.00002,17.652449
142.99998,17.645591
144,17.639074
145.00002,17.632919
145.99998,17.626897
147,17.621236
148.00002,17.616638
148.99998,17.611129
150,17.605736
151.00002,17.600436
151.99998,17.595479
153,17.590656
154.00002,17.586742
154.99998,17.583113
156,17.579296
157.00002,17.575231
157.99998,17.571319
159,17.56756
160.00002,17.563686
160.99998,17.559965
162,17.556471
163.00002,17.552901
163.99998,17.549673
165,17.546939
166.00002,17.544394
166.99998,17.541223
168,17.53828
169.00002,17.535452
169.99998,17.532756
171,17.530269
172.00002,17.527764
172.99998,17.525409
174,17.523434
175.00002,17.521517
175.99998,17.51956
177,17.517831
178.00002,17.515991
178.99998,17.514394
180,17.512761
181.00002,17.511053
181.99998,17.509438
183,17.508165
184.00002,17.506817
184.99998,17.505525
186,17.504327
187.00002,17.503301
187.99998,17.502237
189,17.501096
190.00002,17.50009
190.99998,17.499214
192,17.498433
193.00002,17.49773
193.99998,17.497177
195,17.496663
196.00002,17.496298
196.99998,17.495934
198,17.495835
199.00002,17.495794
199.99998,17.495808
201,17.495918
202.00002,17.496046
202.99998,17.496287
204,17.496757
205.00002,17.497206
205.99998,17.497619
207,17.498067
208.00002,17.498554
208.99998,17.499175
210,17.499945
211.00002,17.500961
211.99998,17.502149
213,17.503354
214.00002,17.504823
214.99998,17.506407
216,17.50816
217.00002,17.510139
217.99998,17.512423
219,17.514818
220.00002,17.517552
220.99998,17.520478
222,17.523571
223.00002,17.526607
223.99998,17.529851
225,17.533021
226.00002,17.53634
226.99998,17.53964
228,17.542921
229.00002,17.545806
229.99998,17.548765
231,17.551346
232.00002,17.553493
232.99998,17.555545
234,17.557163
235.00002,17.558099
235.99998,17.559
237,17.558935
238.00002,17.557871
238.99998,17.556862
240,17.555534
241.00002,17.554185
241.99998,17.552648
243,17.550865
244.00002,17.549009
244.99998,17.546773
246,17.544463
247.00002,17.542153
247.99998,17.539617
249,17.537231
250.00002,17.534902
250.99998,17.532403
252,17.529925
253.00002,17.527672
253.99998,17.525439
255,17.523188
256.00002,17.521162
256.99998,17.519193
258,17.517563
259.00002,17.515993
259.99998,17.514665
261,17.513434
262.00002,17.512258
262.99998,17.51099
264,17.509776
265.00002,17.508695
265.99998,17.507634
267,17.506515
268.00002,17.506586
268.99998,17.507391
270,17.507726
271.00002,17.507965
271.99998,17.508393
273,17.508896
274.00002,17.509815
274.99998,17.513448
276,17.516836
277.00002,17.520902
277.99998,17.525703
279,17.530392
280.00002,17.535494
280.99998,17.541764
282,17.54779
283.00002,17.55634
283.99998,17.565662
285,17.575362
286.00002,17.58489
286.99998,17.596924
288,17.610353
289.00002,17.624702
289.99998,17.639409
291,17.655151
292.00002,17.67255
292.99998,17.691587
294,17.713091
295.00002,17.733971
295.99998,17.758618
297,17.787256
298.00002,17.817248
298.99998,17.84818
300,17.888188
301.00002,17.929078
301.99998,17.976106
303,18.03008
304.00002,18.088568
304.99998,18.155377
306,18.22913
307.00002,18.307999
307.99998,18.391398
309,18.480234
310.00002,18.575499
310.99998,18.673811
312,18.774016
313.00002,18.877447
313.99998,18.982342
315,19.088397
316.00002,19.197926
316.99998,19.310967
318,19.424349
319.00002,19.538332
319.99998,19.653765
321,19.770929
322.00002,19.889628
322.99998,20.014047
324,20.137581
325.00002,20.261464
325.99998,20.385526
327,20.50939
328.00002,20.630465
328.99998,20.736398
330,20.825433
331.00002,20.893347
331.99998,20.920263
333,20.913617
334.00002,20.864538
334.99998,20.787319
336,20.679446
337.00002,20.554546
337.99998,20.423011
339,20.292144
340.00002,20.162725
340.99998,20.036167
342,19.909796
343.00002,19.795255
343.99998,19.68015
345,19.571023
346.00002,19.466334
346.99998,19.363071
348,19.263953
349.00002,19.16632
349.99998,19.080339
351,18.995097
352.00002,18.911102
352.99998,18.831808
354,18.757563
355.00002,18.690672
355.99998,18.624253
357,18.55803
358.00002,18.491963
358.99998,18.427476
360,18.366718
361.00002,18.307994
361.99998,18.250024
363,18.194128
364.00002,18.140509
364.99998,18.089748
366,18.041361
367.00002,17.996189
367.99998,17.950945
369,17.906156
370.00002,17.862234
370.99998,17.821772
372,17.783792
373.00002,17.747299
373.99998,17.711222
375,17.676181
376.00002,17.643959
376.99998,17.612811
378,17.582997
379.00002,17.553186
379.99998,17.525086
381,17.497947
382.00002,17.472442
382.99998,17.448084
384,17.42388
385.00002,17.400351
385.99998,17.3772
387,17.35625
388.00002,17.336255
388.99998,17.316864
390,17.298038
391.00002,17.279869
391.99998,17.262023
393,17.244964
394.00002,17.228319
394.99998,17.212823
396,17.197475
397.00002,17.182447
397.99998,17.167987
399,17.153543
400.00002,17.139816
400.99998,17.127194
402,17.115361
403.00002,17.103626
403.99998,17.092677
405,17.081334
406.00002,17.071174
406.99998,17.061708
408,17.052604
409.00002,17.043946
409.99998,17.035514
411,17.027571
412.00002,17.02019
412.99998,17.013114
414,17.006147
415.00002,16.999443
415.99998,16.992838
417,16.986491
418.00002,16.980295
418.99998,16.974009
420,16.96802
421.00002,16.962237
421.99998,16.95659
423,16.95109
424.00002,16.945762
424.99998,16.940581
426,16.935554
427.00002,16.930617
427.99998,16.925812
429,16.921086
430.00002,16.916619
430.99998,16.912212
432,16.907596
433.00002,16.903167
433.99998,16.900125
435,16.911685
436.00002,16.940518
436.99998,16.983332
438,17.0457
439.00002,17.121593
439.99998,17.207787
441,17.291126
442.00002,17.377512
442.99998,17.476838
444,17.582677
445.00002,17.698886
445.99998,17.81814
447,18.113837
448.00002,18.48028
448.99998,18.817666
450,19.126443
451.00002,19.40109
451.99998,19.731752
453,20.177619
454.00002,20.673465
454.99998,21.208454
456,21.76528
457.00002,22.301748
457.99998,22.823949
459,23.315821
460.00002,23.770396
460.99998,24.189241
462,24.581455
463.00002,24.91997
463.99998,25.227917
465,25.496618
466.00002,25.737391
466.99998,25.953665
468,26.143889
469.00002,26.331444
469.99998,26.496842
471,26.658001
472.00002,26.801481
472.99998,26.927903
474,27.035958
475.00002,27.145167
475.99998,27.271529
477,27.410811
478.00002,27.555848
478.99998,27.696592
480,27.814459
481.00002,27.931181
481.99998,28.050795
483,28.183736
484.00002,28.316973
484.99998,28.444271
486,28.549974
487.00002,28.659312
487.99998,28.76891
489,28.872816
490.00002,28.951383
490.99998,29.012241
492,29.05992
493.00002,29.107342
493.99998,29.163608
495,29.257675
496.00002,29.478756
496.99998,29.778025
498,30.037024
499.00002,30.253777
499.99998,30.422801
501,30.574562
502.00002,30.711818
502.99998,30.842321
504,30.960417
505.00002,31.075686
505.99998,31.191187
507,31.314368
508.00002,31.444416
508.99998,31.570233
510,31.668922
511.00002,31.750857
511.99998,31.810657
513,31.845504
514.00002,31.866838
514.99998,31.861184
516,31.838319
517.00002,31.800263
517.99998,31.74745
519,31.694172
520.00002,31.632152
520.99998,31.574942
522,31.519676
523.00002,31.468992
523.99998,31.438325
525,31.468449
526.00002,31.51858
526.99998,31.567964
528,31.615997
529.00002,31.653623
529.99998,31.689251
531,31.708512
532.00002,31.726279
532.99998,31.752638
534,31.789454
535.00002,31.880914
535.99998,32.04037
537,32.194287
538.00002,32.342536
538.99998,32.491337
