Time     ,Unsubtracted Heat Flow
0.2,19.84599646
0.4,19.84571191
0.6,19.84542736
0.8,19.84514281
1,19.84485826
1.2,19.84457371
1.4,19.84428916
1.6,19.84400461
1.8,19.84372006
2,19.84343551
2.2,19.84315096
2.4,19.84286641
2.6,19.84258186
2.8,19.84229731
3,19.841594
3.2,19.841594
3.4,19.841561
3.6,19.841428
3.8,19.841197
4,19.840865
4.2,19.840435
4.4,19.839888
4.6,19.839309
4.8,19.838679
5,19.838034
5.2,19.837371
5.4,19.836742
5.6,19.836129
5.8,19.835516
6,19.83492
6.2,19.834374
6.4,19.833844
6.6,19.83333
6.8,19.8328
7,19.83232
7.2,19.831823
7.4,19.83136
7.6,19.830913
7.8,19.830565
8,19.830267
8.2,19.830018
8.4,19.841594
8.6,19.841594
8.8,19.841561
9,19.841428
9.2,19.841197
9.4,19.840865
9.6,19.840435
9.8,19.839888
10,19.839309
10.2,19.838679
10.4,19.838034
10.6,19.837371
10.8,19.836742
11,19.836129
11.2,19.835516
11.4,19.83492
11.6,19.834374
11.8,19.833844
12,19.83333
12.2,19.8328
12.4,19.83232
12.6,19.831823
12.8,19.83136
13,19.830913
13.2,19.830565
13.4,19.830267
13.6,19.830018
13.8,19.829919
14,19.829685
14.2,19.829169
14.4,19.828435
14.6,19.827037
14.8,19.825622
15,19.823475
15.2,19.821644
15.4,19.818124
15.6,19.814471
15.8,19.810074
16,19.805893
16.2,19.802507
16.4,19.797548
16.6,19.790056
16.8,19.781091
17,19.772541
17.2,19.764189
17.4,19.757063
17.6,19.748894
17.8,19.741072
18,19.733068
18.2,19.72528
18.4,19.717492
18.6,19.709373
18.8,19.701586
19,19.693997
19.2,19.685979
19.4,19.678159
19.6,19.670902
19.8,19.664043
20,19.657299
20.2,19.651136
20.4,19.645485
20.6,19.639753
20.8,19.634616
21,19.62986
21.2,19.625253
21.4,19.62058
21.6,19.616106
21.8,19.612294
22,19.609525
22.2,19.606375
22.4,19.60445
22.6,19.603022
22.8,19.601014
23,19.598841
23.2,19.596867
23.4,19.594843
23.6,19.592935
23.8,19.591044
24,19.58897
24.2,19.586996
24.4,19.585171
24.6,19.584008
24.8,19.58412
25,19.58567
25.2,19.58684
25.4,19.587399
25.6,19.587642
25.8,19.588415
26,19.589651
26.2,19.59059
26.4,19.591529
26.6,19.592583
26.8,19.593571
27,19.594476
27.2,19.595332
27.4,19.596287
27.6,19.597374
27.8,19.599057
28,19.601303
28.2,19.603333
28.4,19.605264
28.6,19.607476
28.8,19.609986
29,19.612148
29.2,19.614228
29.4,19.616456
29.6,19.618851
29.8,19.621162
30,19.623523
30.2,19.625949
30.4,19.628327
30.6,19.63077
30.8,19.633312
31,19.635888
31.2,19.638463
31.4,19.641022
31.6,19.643532
31.8,19.646008
32,19.648517
32.2,19.651026
32.4,19.653551
32.6,19.656077
32.8,19.658619
33,19.661144
33.2,19.66367
33.4,19.666178
33.6,19.668654
33.8,19.67108
34,19.673506
34.2,19.675948
34.4,19.678441
34.6,19.680883
34.8,19.683325
35,19.685801
35.2,19.688276
35.4,19.690702
35.6,19.693127
35.8,19.695487
36,19.697847
36.2,19.700173
36.4,19.702499
36.6,19.704776
36.8,19.707102
37,19.709411
37.2,19.711754
37.4,19.714047
37.6,19.716373
37.8,19.718599
38,19.720777
38.2,19.722937
38.4,19.725015
38.6,19.726994
38.8,19.728989
39,19.730984
39.2,19.732979
39.4,19.734974
39.6,19.736903
39.8,19.738749
40,19.740496
40.2,19.742392
40.4,19.744238
40.6,19.746018
40.8,19.747749
41,19.749462
41.2,19.751159
41.4,19.752807
41.6,19.754388
41.8,19.755969
42,19.757601
42.2,19.759232
42.4,19.760796
42.6,19.762295
42.8,19.763794
43,19.765259
43.2,19.766725
43.4,19.768174
43.6,19.769656
43.8,19.771171
44,19.772537
44.2,19.773903
44.4,19.775254
44.6,19.776553
44.8,19.77782
45,19.779038
45.2,19.780173
45.4,19.78134
45.6,19.782525
45.8,19.783643
46,19.784745
46.2,19.785847
46.4,19.786965
46.6,19.787902
46.8,19.788689
47,19.789444
47.2,19.790182
47.4,19.790837
47.6,19.791459
47.8,19.792099
48,19.792804
48.2,19.793542
48.4,19.79428
48.6,19.794935
48.8,19.795359
49,19.795668
49.2,19.795943
49.4,19.796252
49.6,19.79666
49.8,19.797034
50,19.797442
50.2,19.797882
50.4,19.798356
50.6,19.798862
50.8,19.799419
51,19.799959
51.2,19.800449
51.4,19.800923
51.6,19.801413
51.8,19.801904
52,19.80241
52.2,19.802867
52.4,19.803325
52.6,19.803749
52.8,19.80419
53,19.804598
53.2,19.805022
53.4,19.805413
53.6,19.805788
53.8,19.806179
54,19.806586
54.2,19.806994
54.4,19.807336
54.6,19.84798831
54.8,19.84770376
55,19.84741921
55.2,19.84713466
55.4,19.84685011
55.6,19.84656556
55.8,19.84628101
56,19.84599646
56.2,19.84571191
56.4,19.84542736
56.6,19.84514281
56.8,19.84485826
57,19.84457371
57.2,19.84428916
57.4,19.84400461
57.6,19.84372006
57.8,19.84343551
58,19.84315096
58.2,19.84286641
58.4,19.84258186
58.6,19.84229731
58.8,19.841594
59,19.841594
59.2,19.841561
59.4,19.841428
59.6,19.841197
59.8,19.840865
60,19.840435
60.2,19.839888
60.4,19.839309
60.6,19.838679
60.8,19.838034
61,19.837371
61.2,19.836742
61.4,19.836129
61.60002,19.835516
61.8,19.83492
61.99998,19.834374
62.20002,19.833844
62.4,19.83333
62.59998,19.8328
62.80002,19.83232
63,19.831823
63.19998,19.83136
63.40002,19.830913
63.6,19.830565
63.79998,19.830267
64.00002,19.830018
64.2,19.841594
64.39998,19.841594
64.60002,19.841561
64.8,19.841428
64.99998,19.841197
65.20002,19.840865
65.4,19.840435
65.59998,19.839888
65.80002,19.839309
66,19.838679
66.19998,19.838034
66.40002,19.837371
66.6,19.836742
66.79998,19.836129
67.00002,19.835516
67.2,19.83492
67.39998,19.834374
67.60002,19.833844
67.8,19.83333
67.99998,19.8328
68.20002,19.83232
68.4,19.831823
68.59998,19.83136
68.80002,19.830913
69,19.830565
69.19998,19.830267
69.40002,19.830018
69.6,19.829919
69.79998,19.829685
70.00002,19.829169
70.2,19.828435
70.39998,19.827037
70.60002,19.825622
70.8,19.823475
70.99998,19.821644
71.20002,19.818124
71.4,19.814471
71.59998,19.810074
71.80002,19.805893
72,19.802507
72.19998,19.797548
72.40002,19.790056
72.6,19.781091
72.79998,19.772541
73.00002,19.764189
73.2,19.757063
73.39998,19.748894
73.60002,19.741072
73.8,19.733068
73.99998,19.72528
74.20002,19.717492
74.4,19.709373
74.59998,19.701586
74.80002,19.693997
75,19.685979
75.19998,19.678159
75.40002,19.670902
75.6,19.664043
75.79998,19.657299
76.00002,19.651136
76.2,19.645485
76.39998,19.639753
76.60002,19.634616
76.8,19.62986
76.99998,19.625253
77.20002,19.62058
77.4,19.616106
77.59998,19.612294
77.80002,19.609525
78,19.606375
78.19998,19.60445
78.40002,19.603022
78.6,19.601014
78.79998,19.598841
79.00002,19.596867
79.2,19.594843
79.39998,19.592935
79.60002,19.591044
79.8,19.58897
79.99998,19.586996
80.20002,19.585171
80.4,19.584008
80.59998,19.58412
80.80002,19.58567
81,19.58684
81.19998,19.587399
81.40002,19.587642
81.6,19.588415
81.79998,19.589651
82.00002,19.59059
82.2,19.591529
82.39998,19.592583
82.60002,19.593571
82.8,19.594476
82.99998,19.595332
83.20002,19.596287
83.4,19.597374
83.59998,19.599057
83.80002,19.601303
84,19.603333
84.19998,19.605264
84.40002,19.607476
84.6,19.609986
84.79998,19.612148
85.00002,19.614228
85.2,19.616456
85.39998,19.618851
85.60002,19.621162
85.8,19.623523
85.99998,19.625949
86.20002,19.628327
86.4,19.63077
86.59998,19.633312
86.80002,19.635888
87,19.638463
87.19998,19.641022
87.40002,19.643532
87.6,19.646008
87.79998,19.648517
88.00002,19.651026
88.2,19.653551
88.39998,19.656077
88.60002,19.658619
88.8,19.661144
88.99998,19.66367
89.20002,19.666178
89.4,19.668654
89.59998,19.67108
89.80002,19.673506
90,19.675948
90.19998,19.678441
90.40002,19.680883
90.6,19.683325
90.79998,19.685801
91.00002,19.688276
91.2,19.690702
91.39998,19.693127
91.60002,19.695487
91.8,19.697847
91.99998,19.700173
92.20002,19.702499
92.4,19.704776
92.59998,19.707102
92.80002,19.709411
93,19.711754
93.19998,19.714047
93.40002,19.716373
93.6,19.718599
93.79998,19.720777
94.00002,19.722937
94.2,19.725015
94.39998,19.726994
94.60002,19.728989
94.8,19.730984
94.99998,19.732979
95.20002,19.734974
95.4,19.736903
95.59998,19.738749
95.80002,19.740496
96,19.742392
96.19998,19.744238
96.40002,19.746018
96.6,19.747749
96.79998,19.749462
97.00002,19.751159
97.2,19.752807
97.39998,19.754388
97.60002,19.755969
97.8,19.757601
97.99998,19.759232
98.20002,19.760796
98.4,19.762295
98.59998,19.763794
98.80002,19.765259
99,19.766725
99.19998,19.768174
99.40002,19.769656
99.6,19.771171
99.79998,19.772537
100.00002,19.773903
100.2,19.775254
100.39998,19.776553
100.60002,19.77782
100.8,19.779038
100.99998,19.780173
101.20002,19.78134
101.4,19.782525
101.59998,19.783643
101.80002,19.784745
102,19.785847
102.19998,19.786965
102.40002,19.787902
102.6,19.788689
102.79998,19.789444
103.00002,19.790182
103.2,19.790837
103.39998,19.791459
103.60002,19.792099
103.8,19.792804
103.99998,19.793542
104.20002,19.79428
104.4,19.794935
104.59998,19.795359
104.80002,19.795668
105,19.795943
105.19998,19.796252
105.40002,19.79666
105.6,19.797034
105.79998,19.797442
106.00002,19.797882
106.2,19.798356
106.39998,19.798862
106.60002,19.799419
106.8,19.799959
106.99998,19.800449
107.20002,19.800923
107.4,19.801413
107.59998,19.801904
107.80002,19.80241
108,19.802867
108.19998,19.803325
108.40002,19.803749
108.6,19.80419
108.79998,19.804598
109.00002,19.805022
109.2,19.805413
109.39998,19.805788
109.60002,19.806179
109.8,19.806586
109.99998,19.806994
110.20002,19.807336
110.4,19.807694
110.59998,19.808003
110.80002,19.808295
111,19.808603
111.19998,19.808929
111.40002,19.809221
111.6,19.809446
111.79998,19.80959
112.00002,19.80975
112.2,19.809943
112.39998,19.810087
112.60002,19.810263
112.8,19.81039
112.99998,19.8105
113.20002,19.810595
113.4,19.810672
113.59998,19.81075
113.80002,19.810827
114,19.810921
114.19998,19.811016
114.40002,19.811093
114.6,19.81122
114.79998,19.811347
115.00002,19.811458
115.2,19.811535
115.39998,19.811613
115.60002,19.81169
115.8,19.811784
115.99998,19.811846
116.20002,19.811907
116.4,19.811951
116.59998,19.812012
116.80002,19.812041
117,19.812085
117.19998,19.81213
117.40002,19.812158
117.6,19.81217
117.79998,19.812198
118.00002,19.81221
118.2,19.812238
118.39998,19.81225
118.60002,19.812262
118.8,19.812273
118.99998,19.812269
119.20002,19.812231
119.4,19.812209
119.59998,19.812205
119.80002,19.812184
120,19.812179
120.19998,19.812191
120.40002,19.81217
120.6,19.812148
120.79998,19.812111
121.00002,19.812073
121.2,19.812052
121.39998,19.812031
121.60002,19.812027
121.8,19.812005
121.99998,19.811984
122.20002,19.81198
122.4,19.811959
122.59998,19.811938
122.80002,19.811901
123,19.811846
123.19998,19.811776
123.40002,19.811706
123.6,19.811635
123.79998,19.811581
124.00002,19.811494
124.2,19.811457
124.39998,19.811369
124.60002,19.811266
124.8,19.811179
124.99998,19.811092
125.20002,19.810989
125.4,19.810853
125.59998,19.810716
125.80002,19.810563
126,19.810427
126.19998,19.810274
126.40002,19.810122
126.6,19.809985
126.79998,19.809832
127.00002,19.809696
127.2,19.80951
127.39998,19.809358
127.60002,19.809189
127.8,19.809036
127.99998,19.80885
128.20002,19.808714
128.4,19.808578
128.59998,19.808458
128.80002,19.808322
129,19.808202
129.19998,19.808066
129.40002,19.807964
129.6,19.807844
129.79998,19.807741
130.00002,19.807654
130.2,19.807518
130.39998,19.807415
130.60002,19.807296
130.8,19.80716
130.99998,19.80704
131.20002,19.806905
131.4,19.806785
131.59998,19.806665
131.80002,19.806546
132,19.80641
132.19998,19.806258
132.40002,19.806122
132.6,19.805986
132.79998,19.80585
133.00002,19.805714
133.2,19.805563
133.39998,19.805394
133.60002,19.805192
133.8,19.805007
133.99998,19.804821
134.20002,19.804652
134.4,19.804435
134.59998,19.804216
134.80002,19.804015
135,19.803846
135.19998,19.803677
135.40002,19.803558
135.6,19.803439
135.79998,19.80332
136.00002,19.803168
136.2,19.802999
136.39998,19.802814
136.60002,19.802596
136.8,19.802395
136.99998,19.802177
137.20002,19.801959
137.4,19.801724
137.59998,19.801473
137.80002,19.801255
138,19.801021
138.19998,19.800803
138.40002,19.800601
138.6,19.8004
138.79998,19.800215
139.00002,19.800047
139.2,19.799862
139.39998,19.799644
139.60002,19.799426
139.8,19.799209
139.99998,19.798991
140.20002,19.798773
140.4,19.798572
140.59998,19.798387
140.80002,19.798203
141,19.798051
141.19998,19.797883
141.40002,19.797731
141.6,19.79758
141.79998,19.797444
142.00002,19.797326
142.2,19.797207
142.39998,19.797089
142.60002,19.796986
142.8,19.796852
142.99998,19.796716
143.20002,19.796598
143.4,19.796479
143.59998,19.796311
143.80002,19.796143
144,19.795976
144.19998,19.795824
144.40002,19.795689
144.6,19.795538
144.79998,19.79537
145.00002,19.795202
145.2,19.795051
145.39998,19.794883
145.60002,19.794698
145.8,19.794514
145.99998,19.79428
146.20002,19.794046
146.4,19.793813
146.59998,19.793612
146.80002,19.793427
147,19.793227
147.19998,19.793042
147.40002,19.792842
147.6,19.792641
147.79998,19.79244
148.00002,19.792256
148.2,19.792105
148.39998,19.791954
148.60002,19.791803
148.8,19.791652
148.99998,19.791484
149.20002,19.791316
149.4,19.791165
149.59998,19.790981
149.80002,19.790797
150,19.790646
150.19998,19.790479
150.40002,19.790328
150.6,19.79016
150.79998,19.789976
151.00002,19.789792
151.2,19.789576
151.39998,19.789375
151.60002,19.789174
151.8,19.788974
151.99998,19.78879
152.20002,19.788606
152.4,19.788406
152.59998,19.788222
152.80002,19.788022
153,19.787822
153.19998,19.787638
153.40002,19.787437
153.6,19.787221
153.79998,19.787037
154.00002,19.786853
154.2,19.786653
154.39998,19.786469
154.60002,19.786253
154.8,19.786053
154.99998,19.785852
155.20002,19.785652
155.4,19.785452
155.59998,19.785236
155.80002,19.785068
156,19.784901
156.19998,19.784734
156.40002,19.784567
156.6,19.784417
156.79998,19.784266
157.00002,19.784115
157.2,19.783949
157.39998,19.783782
157.60002,19.783631
157.8,19.783497
157.99998,19.783363
158.20002,19.783213
158.4,19.783046
158.59998,19.782879
158.80002,19.782745
159,19.782578
159.19998,19.782395
159.40002,19.782244
159.6,19.782111
159.79998,19.781993
160.00002,19.781876
160.2,19.781792
160.39998,19.781674
160.60002,19.78159
160.8,19.781456
160.99998,19.781339
161.20002,19.781238
161.4,19.781121
161.59998,19.780971
161.80002,19.78082
162,19.780654
162.19998,19.780503
162.40002,19.780353
162.6,19.780203
162.79998,19.780037
163.00002,19.77987
163.2,19.77972
163.39998,19.779586
163.60002,19.779436
163.8,19.779286
163.99998,19.77912
164.20002,19.778953
164.4,19.77877
164.59998,19.778587
164.80002,19.778387
165,19.778188
165.19998,19.778022
165.40002,19.777839
165.6,19.777639
165.79998,19.777456
166.00002,19.777273
166.2,19.777107
166.39998,19.776924
166.60002,19.776758
166.8,19.776625
166.99998,19.776475
167.20002,19.776325
167.4,19.776191
167.59998,19.776058
167.80002,19.775925
168,19.775792
168.19998,19.775642
168.40002,19.775508
168.6,19.775342
168.79998,19.775193
169.00002,19.775059
169.2,19.774926
169.39998,19.774809
169.60002,19.774709
169.8,19.774609
169.99998,19.774525
170.20002,19.774442
170.4,19.774375
170.59998,19.774291
170.80002,19.774224
171,19.77414
171.19998,19.774056
171.40002,19.773956
171.6,19.77384
171.79998,19.773723
172.00002,19.773557
172.2,19.773408
172.39998,19.773275
172.60002,19.773142
172.8,19.773009
172.99998,19.772859
173.20002,19.77271
173.4,19.772544
173.59998,19.772444
173.80002,19.772295
174,19.772162
174.19998,19.772062
174.40002,19.771962
174.6,19.771846
174.79998,19.771696
175.00002,19.77158
175.2,19.771447
175.39998,19.771314
175.60002,19.771198
175.8,19.771082
175.99998,19.770932
176.20002,19.7708
176.4,19.7707
176.59998,19.770617
176.80002,19.770484
177,19.770384
177.19998,19.770251
177.40002,19.770119
177.6,19.769986
177.79998,19.769837
178.00002,19.769688
178.2,19.769539
178.39998,19.769406
178.60002,19.76924
178.8,19.769091
178.99998,19.768942
179.20002,19.76881
179.4,19.768677
179.59998,19.768545
179.80002,19.768379
180,19.76823
180.19998,19.768081
180.40002,19.767932
180.6,19.767767
180.79998,19.767618
181.00002,19.767452
181.2,19.767303
181.39998,19.767138
181.60002,19.767006
181.8,19.766873
181.99998,19.766741
182.20002,19.766625
182.4,19.766493
182.59998,19.76636
182.80002,19.766244
183,19.766112
183.19998,19.765996
183.40002,19.765864
183.6,19.765732
183.79998,19.765566
184.00002,19.765401
184.2,19.765252
184.39998,19.765104
184.60002,19.764955
184.8,19.764823
184.99998,19.764674
185.20002,19.764525
185.4,19.764377
185.59998,19.764228
185.80002,19.764079
186,19.763914
186.19998,19.763766
186.40002,19.763601
186.6,19.763452
186.79998,19.76332
187.00002,19.763155
187.2,19.763006
187.39998,19.762825
187.60002,19.76266
187.8,19.762478
187.99998,19.762313
188.20002,19.762148
188.4,19.762
188.59998,19.761851
188.80002,19.761686
189,19.761505
189.19998,19.761324
189.40002,19.761109
189.6,19.760895
189.79998,19.760697
190.00002,19.760516
190.2,19.760334
190.39998,19.76012
190.60002,19.759922
190.8,19.759741
190.99998,19.75956
191.20002,19.759362
191.4,19.759213
191.59998,19.759016
191.80002,19.758818
192,19.758637
192.19998,19.758455
192.40002,19.758258
192.6,19.758044
192.79998,19.757846
193.00002,19.757648
193.2,19.757451
193.39998,19.757253
193.60002,19.757039
193.8,19.756858
193.99998,19.756677
194.20002,19.756512
194.4,19.756331
194.59998,19.756117
194.80002,19.755919
195,19.755705
195.19998,19.755508
195.40002,19.755343
195.6,19.755179
195.79998,19.754998
196.00002,19.754833
196.2,19.754702
196.39998,19.75457
196.60002,19.754439
196.8,19.754307
196.99998,19.754176
197.20002,19.754044
197.4,19.753929
197.59998,19.753814
197.80002,19.753699
198,19.753584
198.19998,19.753453
198.40002,19.753322
198.6,19.753174
198.79998,19.753042
199.00002,19.752927
199.2,19.752812
199.39998,19.752698
199.60002,19.752583
199.8,19.752501
199.99998,19.752403
200.20002,19.752304
200.4,19.752223
200.59998,19.752091
200.80002,19.751944
201,19.751779
201.19998,19.751599
201.40002,19.751418
201.6,19.751237
201.79998,19.751073
202.00002,19.750876
202.2,19.750695
202.39998,19.750515
202.60002,19.750351
202.8,19.750186
202.99998,19.750006
203.20002,19.749809
203.4,19.749628
203.59998,19.749415
203.80002,19.749185
204,19.748938
204.19998,19.748708
204.40002,19.748478
204.6,19.748281
204.79998,19.748084
205.00002,19.747904
205.2,19.74774
205.39998,19.747559
205.60002,19.747412
205.8,19.747231
205.99998,19.747067
206.20002,19.74692
206.4,19.746756
206.59998,19.746625
206.80002,19.746494
207,19.746363
207.19998,19.746265
207.40002,19.746151
207.6,19.746086
207.79998,19.745988
208.00002,19.745923
208.2,19.745858
208.39998,19.745843
208.60002,19.745811
208.8,19.745763
208.99998,19.745698
209.20002,19.745633
209.4,19.745535
209.59998,19.745405
209.80002,19.745274
210,19.74511
210.19998,19.74498
210.40002,19.744865
210.6,19.74485
210.79998,19.744818
211.00002,19.74477
211.2,19.744639
211.39998,19.744492
211.60002,19.744362
211.8,19.744198
211.99998,19.744018
212.20002,19.743855
212.4,19.743691
212.59998,19.743428
212.80002,19.743149
213,19.742887
213.19998,19.742624
213.40002,19.742378
213.6,19.742149
213.79998,19.741952
214.00002,19.741789
214.2,19.741642
214.39998,19.741511
214.60002,19.741365
214.8,19.741217
214.99998,19.741054
215.20002,19.740891
215.4,19.740744
215.59998,19.740597
215.80002,19.740417
216,19.740253
216.19998,19.740107
216.40002,19.739976
216.6,19.739862
216.79998,19.739699
217.00002,19.739552
217.2,19.739405
217.39998,19.739292
217.60002,19.739161
217.8,19.739047
217.99998,19.738917
218.20002,19.738787
218.4,19.738673
218.59998,19.738576
218.80002,19.738462
219,19.738332
219.19998,19.738218
219.40002,19.738104
219.6,19.737991
219.79998,19.737893
220.00002,19.73778
220.2,19.737682
220.39998,19.737569
220.60002,19.737455
220.8,19.737341
220.99998,19.737244
221.20002,19.737147
221.4,19.737067
221.59998,19.736953
221.80002,19.736889
222,19.736792
222.19998,19.736711
222.40002,19.736614
222.6,19.73655
222.79998,19.73647
223.00002,19.736373
223.2,19.736275
223.39998,19.736179
223.60002,19.736098
223.8,19.736034
223.99998,19.735937
224.20002,19.735857
224.4,19.735793
224.59998,19.735712
224.80002,19.735615
225,19.735535
225.19998,19.735421
225.40002,19.735325
225.6,19.735244
225.79998,19.735131
226.00002,19.735034
226.2,19.734954
226.39998,19.734857
226.60002,19.73476
226.8,19.73468
226.99998,19.734583
227.20002,19.734453
227.4,19.734356
227.59998,19.734226
227.80002,19.734097
228,19.73395
228.19998,19.733804
228.40002,19.733658
228.6,19.733495
228.79998,19.733349
229.00002,19.733236
229.2,19.733155
229.39998,19.733059
229.60002,19.732946
229.8,19.732866
229.99998,19.732785
230.20002,19.732738
230.4,19.732691
230.59998,19.732611
230.80002,19.732531
231,19.7325
231.19998,19.73242
231.40002,19.732373
231.6,19.732326
231.79998,19.732229
232.00002,19.732166
232.2,19.732086
232.39998,19.732039
232.60002,19.732008
232.8,19.731977
232.99998,19.731947
233.20002,19.7319
233.4,19.731837
233.59998,19.731757
233.80002,19.731693
234,19.731613
234.19998,19.731484
234.40002,19.731322
234.6,19.731159
234.79998,19.73098
235.00002,19.730801
235.2,19.730672
235.39998,19.730526
235.60002,19.730364
235.8,19.730185
235.99998,19.72994
236.20002,19.729695
236.4,19.729517
236.59998,19.729337
236.80002,19.729175
237,19.729063
237.19998,19.728917
237.40002,19.728787
237.6,19.728691
237.79998,19.728578
238.00002,19.728449
238.2,19.72832
238.39998,19.728224
238.60002,19.728111
238.8,19.727998
238.99998,19.727885
239.20002,19.72774
239.4,19.727611
239.59998,19.727481
239.80002,19.727369
240,19.727256
240.19998,19.727127
240.40002,19.726998
240.6,19.726902
240.79998,19.726822
241.00002,19.726759
241.2,19.72668
241.39998,19.726583
241.60002,19.726521
241.8,19.726474
241.99998,19.726427
242.20002,19.726397
242.4,19.726351
242.59998,19.726354
242.80002,19.72634
243,19.726327
243.19998,19.726297
243.40002,19.726218
243.6,19.726171
243.79998,19.726141
244.00002,19.726111
244.2,19.726065
244.39998,19.726068
244.60002,19.726055
244.8,19.726041
244.99998,19.726011
245.20002,19.725982
245.4,19.725951
245.59998,19.725922
245.80002,19.725892
246,19.725895
246.19998,19.725882
246.40002,19.725852
246.6,19.725839
246.79998,19.725826
247.00002,19.725829
247.2,19.725832
247.39998,19.725868
247.60002,19.725888
247.8,19.725925
247.99998,19.725944
248.20002,19.726014
248.4,19.726066
248.59998,19.726086
248.80002,19.726057
249,19.726043
249.19998,19.725997
249.40002,19.726034
249.6,19.726087
249.79998,19.726156
250.00002,19.726292
250.2,19.726378
250.39998,19.726447
250.60002,19.72655
250.8,19.726669
250.99998,19.727101
251.20002,19.727782
251.4,19.72828
251.59998,19.728911
251.80002,19.729295
252,19.731213
252.19998,19.736764
252.40002,19.745633
252.6,19.766008
252.79998,19.803801
253.00002,19.894275
253.2,20.080619
253.39998,20.3947
253.60002,20.823741
253.8,21.341297
253.99998,21.929701
254.20002,22.555248
254.4,23.212455
254.59998,23.897635
254.80002,24.59452
255,25.304543
255.19998,26.014139
255.40002,26.734801
255.6,27.455613
255.79998,28.181515
256.00002,28.908998
256.2,29.634796
256.39998,30.360487
256.60002,31.089574
256.8,31.818477
256.99998,32.54318
257.20002,33.267515
257.4,33.996223
257.59998,34.720581
257.80002,35.438679
258,36.154061
258.19998,36.861978
258.40002,37.567728
258.6,38.26573
258.79998,38.963407
259.00002,39.660112
259.2,40.352503
259.39998,41.039743
259.60002,41.716058
259.8,42.345767
259.99998,42.877433
260.20002,43.255212
260.4,43.130465
260.59998,42.365545
260.80002,41.261343
261,40.048392
261.19998,38.819887
261.40002,37.615615
261.6,36.461752
261.79998,35.368519
262.00002,34.338387
262.2,33.380357
262.39998,32.493016
262.60002,31.652794
262.8,30.873632
262.99998,30.143692
263.20002,29.466935
263.4,28.833389
263.59998,28.23969
263.80002,27.699373
264,27.18287
264.19998,26.70624
264.40002,26.261429
264.6,25.845242
264.79998,25.456838
265.00002,25.093913
265.2,24.759754
265.39998,24.443356
265.60002,24.147028
265.8,23.870103
265.99998,23.621066
266.20002,23.383824
266.4,23.159243
266.59998,22.94644
266.80002,22.750367
267,22.567621
267.19998,22.396132
267.40002,22.238241
267.6,22.085913
267.79998,21.942945
268.00002,21.813805
268.2,21.689417
268.39998,21.570994
268.60002,21.464893
268.8,21.363098
268.99998,21.269912
269.20002,21.179317
269.4,21.096615
269.59998,21.017846
269.80002,20.940397
270,20.871819
270.19998,20.809894
270.40002,20.748484
270.6,20.686725
270.79998,20.631687
271.00002,20.579409
271.2,20.533738
271.39998,20.483375
271.60002,20.444114
271.8,20.404173
271.99998,20.366381
272.20002,20.334652
272.4,20.30031
272.59998,20.26511
272.80002,20.232157
273,20.205895
273.19998,20.181944
273.40002,20.159663
273.6,20.133978
273.79998,20.108241
274.00002,20.08738
274.2,20.066387
274.39998,20.0483
274.60002,20.032874
274.8,20.016489
274.99998,19.999228
275.20002,19.983851
275.4,19.967563
275.59998,19.953574
275.80002,19.941485
276,19.931345
276.19998,19.920957
276.40002,19.908321
276.6,19.898874
276.79998,19.888734
277.00002,19.878825
277.2,19.870782
277.39998,19.861996
277.60002,19.852236
277.8,19.843879
277.99998,19.836315
278.20002,19.829545
278.4,19.824295
278.59998,19.818847
278.80002,19.81368
279,19.808942
279.19998,19.803973
279.40002,19.799516
279.6,19.794366
279.79998,19.789743
280.00002,19.785236
280.2,19.781093
280.39998,19.776751
280.60002,19.773038
280.8,19.769539
280.99998,19.76604
281.20002,19.76279
281.4,19.759803
281.59998,19.757131
281.80002,19.754458
282,19.751918
282.19998,19.749592
282.40002,19.747251
282.6,19.745041
282.79998,19.743079
283.00002,19.741316
283.2,19.739552
283.39998,19.737706
283.60002,19.735827
283.8,19.733898
283.99998,19.732052
284.20002,19.730255
284.4,19.728508
284.59998,19.726744
284.80002,19.725047
285,19.723382
285.19998,19.721751
285.40002,19.720252
285.6,19.718851
285.79998,19.717766
286.00002,19.716812
286.2,19.716471
286.39998,19.716459
286.60002,19.715886
286.8,19.715229
286.99998,19.714541
287.20002,19.71362
287.4,19.712782
287.59998,19.712093
287.80002,19.711354
288,19.710764
288.19998,19.710191
288.40002,19.709585
288.6,19.709011
288.79998,19.708454
289.00002,19.707881
289.2,19.707357
289.39998,19.706817
289.60002,19.706293
289.8,19.705753
289.99998,19.705212
290.20002,19.704639
290.4,19.704066
290.59998,19.703542
290.80002,19.703052
291,19.702578
291.19998,19.702119
291.40002,19.701712
291.6,19.701271
291.79998,19.700862
292.00002,19.700504
292.2,19.700163
292.39998,19.699788
292.60002,19.699446
292.8,19.699121
292.99998,19.698796
293.20002,19.698503
293.4,19.698195
293.59998,19.697836
293.80002,19.697527
294,19.697235
294.19998,19.696959
294.40002,19.696667
294.6,19.696392
294.79998,19.696116
295.00002,19.695857
295.2,19.695598
295.39998,19.695372
295.60002,19.695179
295.8,19.694986
295.99998,19.694793
296.20002,19.694617
296.4,19.69444
296.59998,19.694314
296.80002,19.694171
297,19.694061
297.19998,19.693934
297.40002,19.693791
297.6,19.693597
297.79998,19.693405
298.00002,19.693229
298.2,19.693052
298.39998,19.692893
298.60002,19.692733
298.8,19.692574
298.99998,19.69243
299.20002,19.692271
299.4,19.692111
299.59998,19.691951
299.80002,19.691775
300.000008,19.691615
300.2000103,19.691472
300.4000126,19.691313
300.6000149,19.691187
300.8000171,19.691043
301.0000194,19.690884
301.2000217,19.690757
301.400024,19.690614
301.6000263,19.690438
301.8000286,19.690295
302.0000309,19.690168
302.2000331,19.690042
302.4000354,19.689932
302.6000377,19.689822
302.80004,19.689696
303.0000423,19.689603
303.2000446,19.689476
303.4000469,19.689366
303.6000491,19.689257
303.8000514,19.68913
304.0000537,19.689003
